angle,intensity
1.000000000000000000e+01,9.067585297526606780e+01
1.002000571591883471e+01,9.434602857404752285e+01
1.004001143183766764e+01,9.558681346279293223e+01
1.006001714775650235e+01,9.650263382362084030e+01
1.008002286367533529e+01,9.744080667464183421e+01
1.010002857959417000e+01,9.772997435880985506e+01
1.012003429551300293e+01,9.838295543385153508e+01
1.014004001143183764e+01,9.905533114183519672e+01
1.016004572735067235e+01,9.987063189913126848e+01
1.018005144326950528e+01,9.952442319999371989e+01
1.020005715918833999e+01,9.997138597484645572e+01
1.022006287510717293e+01,9.885892424709977888e+01
1.024006859102600764e+01,9.878736668741800031e+01
1.026007430694484057e+01,9.773416010452297087e+01
1.028008002286367528e+01,9.683400024067557865e+01
1.030008573878250999e+01,9.540374453541180344e+01
1.032009145470134293e+01,9.356815187316769311e+01
1.034009717062017764e+01,9.052006771325270051e+01
1.036010288653901057e+01,8.842718020971403803e+01
1.038010860245784528e+01,8.520561083747558939e+01
1.040011431837667999e+01,8.195773795130783412e+01
1.042012003429551292e+01,7.723406048057310613e+01
1.044012575021434763e+01,7.285576426584204057e+01
1.046013146613318057e+01,6.906607903439417839e+01
1.048013718205201528e+01,6.489494743242765651e+01
1.050014289797084821e+01,6.019673719094434716e+01
1.052014861388968292e+01,5.524644471170594784e+01
1.054015432980851585e+01,5.031157359797721540e+01
1.056016004572735056e+01,4.716326226932287824e+01
1.058016576164618527e+01,4.255875470318920861e+01
1.060017147756501821e+01,3.973450413412177085e+01
1.062017719348385292e+01,3.583337436495266104e+01
1.064018290940268585e+01,3.417751323996375845e+01
1.066018862532152056e+01,3.102181511271575687e+01
1.068019434124035527e+01,3.015262777570752561e+01
1.070020005715918820e+01,2.763909400552209661e+01
1.072020577307802292e+01,2.687991391424612075e+01
1.074021148899685585e+01,2.536965182519331208e+01
1.076021720491569056e+01,2.552340377114123626e+01
1.078022292083452349e+01,2.388356899490546681e+01
1.080022863675335820e+01,2.395102401804471981e+01
1.082023435267219291e+01,2.323035492244270017e+01
1.084024006859102585e+01,2.315251131646421356e+01
1.086024578450986056e+01,2.362798433604042003e+01
1.088025150042869349e+01,2.385630549349034624e+01
1.090025721634752820e+01,2.384403589958375846e+01
1.092026293226636113e+01,2.277874514045180376e+01
1.094026864818519584e+01,2.407190353138669181e+01
1.096027436410403055e+01,2.358344578181537088e+01
1.098028008002286349e+01,2.397079134462027383e+01
1.100028579594169820e+01,2.379567185328813039e+01
1.102029151186053113e+01,2.443881444918528345e+01
1.104029722777936584e+01,2.467154405027397956e+01
1.106030294369819877e+01,2.552057150699988952e+01
1.108030865961703348e+01,2.539179279680297441e+01
1.110031437553586819e+01,2.529512242574413960e+01
1.112032009145470113e+01,2.590318198176369435e+01
1.114032580737353584e+01,2.592402778310056988e+01
1.116033152329236877e+01,2.699499970605344146e+01
1.118033723921120348e+01,2.677677161058132782e+01
1.120034295513003642e+01,2.702461783240181248e+01
1.122034867104887113e+01,2.696884326358191686e+01
1.124035438696770584e+01,2.778377427004522460e+01
1.126036010288653877e+01,2.755335141186555603e+01
1.128036581880537348e+01,2.791864819230252337e+01
1.130037153472420641e+01,2.935335750325391402e+01
1.132037725064304112e+01,2.864430423532749614e+01
1.134038296656187583e+01,3.006666307648743697e+01
1.136038868248070877e+01,3.041623211138784910e+01
1.138039439839954348e+01,3.005062922193140196e+01
1.140040011431837641e+01,2.989576586711105577e+01
1.142040583023721112e+01,3.124828408720095041e+01
1.144041154615604405e+01,3.140644323732755083e+01
1.146041726207487876e+01,3.072667774856104117e+01
1.148042297799371170e+01,3.228177398378232965e+01
1.150042869391254641e+01,3.184726653081498426e+01
1.152043440983138112e+01,3.254496757111178340e+01
1.154044012575021405e+01,3.224338505546940326e+01
1.156044584166904876e+01,3.291568618322273210e+01
1.158045155758788169e+01,3.384037608005293407e+01
1.160045727350671640e+01,3.429500623606249121e+01
1.162046298942555111e+01,3.490115299984108788e+01
1.164046870534438405e+01,3.548787520006244733e+01
1.166047442126321876e+01,3.558255892412115884e+01
1.168048013718205169e+01,3.616366616381098709e+01
1.170048585310088640e+01,3.645609176859668565e+01
1.172049156901971934e+01,3.623665628994260146e+01
1.174049728493855405e+01,3.696624349868408643e+01
1.176050300085738698e+01,3.755065235555885295e+01
1.178050871677622169e+01,3.875440759843537819e+01
1.180051443269505640e+01,3.913577253979798343e+01
1.182052014861388933e+01,4.000216636282301863e+01
1.184052586453272404e+01,4.030875421526555158e+01
1.186053158045155698e+01,4.076388609878678437e+01
1.188053729637039169e+01,4.199528935082578585e+01
1.190054301228922640e+01,4.265109575655384333e+01
1.192054872820805933e+01,4.249751997205516574e+01
1.194055444412689404e+01,4.285493982101588983e+01
1.196056016004572697e+01,4.351644135894374443e+01
1.198056587596456168e+01,4.424345152967144656e+01
1.200057159188339639e+01,4.360238060229352186e+01
1.202057730780222933e+01,4.431531483574025287e+01
1.204058302372106226e+01,4.457137810348831408e+01
1.206058873963989697e+01,4.394094604057062980e+01
1.208059445555873168e+01,4.394881424864786368e+01
1.210060017147756461e+01,4.446653311429293609e+01
1.212060588739639932e+01,4.262719117737636054e+01
1.214061160331523226e+01,4.357758169353392930e+01
1.216061731923406697e+01,4.215172790748466980e+01
1.218062303515290168e+01,4.123071690589802785e+01
1.220062875107173461e+01,3.945836669065548108e+01
1.222063446699056932e+01,3.771520263572832476e+01
1.224064018290940226e+01,3.700041610764527888e+01
1.226064589882823697e+01,3.572987287647622168e+01
1.228065161474707168e+01,3.313227845573512553e+01
1.230065733066590461e+01,3.147633991954167954e+01
1.232066304658473754e+01,2.939354812114278559e+01
1.234066876250357225e+01,2.719903620512092957e+01
1.236067447842240696e+01,2.510261980125354953e+01
1.238068019434123990e+01,2.364146542606836476e+01
1.240068591026007461e+01,2.187195002964303825e+01
1.242069162617890754e+01,1.873296117701776353e+01
1.244069734209774225e+01,1.841378663045864883e+01
1.246070305801657696e+01,1.689076936834355891e+01
1.248070877393540989e+01,1.575642235919949030e+01
1.250071448985424460e+01,1.444593820994172617e+01
1.252072020577307754e+01,1.356783038899221872e+01
1.254072592169191225e+01,1.260984402473694033e+01
1.256073163761074696e+01,1.206998732435031130e+01
1.258073735352957989e+01,1.203412280600066886e+01
1.260074306944841460e+01,1.181412998667356007e+01
1.262074878536724754e+01,1.121828111180714593e+01
1.264075450128608225e+01,1.088062202317031790e+01
1.266076021720491518e+01,1.009966301633662589e+01
1.268076593312374989e+01,1.004178554204609419e+01
1.270077164904258282e+01,1.085911206235908466e+01
1.272077736496141753e+01,1.003040926288914925e+01
1.274078308088025224e+01,9.236698324564530438e+00
1.276078879679908518e+01,9.686485165725185809e+00
1.278079451271791989e+01,9.254497631922067313e+00
1.280080022863675282e+01,9.601600560524870431e+00
1.282080594455558753e+01,9.261544330708549211e+00
1.284081166047442224e+01,8.393797422751315906e+00
1.286081737639325517e+01,8.820561883914415091e+00
1.288082309231208988e+01,7.997154188909719963e+00
1.290082880823092282e+01,7.436442243853978340e+00
1.292083452414975753e+01,6.843074736016356852e+00
1.294084024006859224e+01,6.402618864413222255e+00
1.296084595598742517e+01,6.299066489280837899e+00
1.298085167190625810e+01,7.062480393696345615e+00
1.300085738782509281e+01,6.316210035799713296e+00
1.302086310374392752e+01,6.699485147832666243e+00
1.304086881966276046e+01,5.457695455643547078e+00
1.306087453558159517e+01,5.562603386405267081e+00
1.308088025150042810e+01,5.535739810776759029e+00
1.310088596741926281e+01,5.352670638675925296e+00
1.312089168333809752e+01,4.194268290158104762e+00
1.314089739925693046e+01,4.449587245541142266e+00
1.316090311517576517e+01,4.812335949592956297e+00
1.318090883109459810e+01,4.355614742767751402e+00
1.320091454701343281e+01,4.189286626699914251e+00
1.322092026293226752e+01,3.931131593743362629e+00
1.324092597885110045e+01,5.031077343599212881e+00
1.326093169476993339e+01,4.258668750119486646e+00
1.328093741068876810e+01,4.048562885102095166e+00
1.330094312660760281e+01,4.499589624158628176e+00
1.332094884252643574e+01,5.201373952206138185e+00
1.334095455844527045e+01,3.675560743128687857e+00
1.336096027436410338e+01,3.737209630258528925e+00
1.338096599028293809e+01,4.222151269859686806e+00
1.340097170620177280e+01,4.557657698814345792e+00
1.342097742212060574e+01,4.388868788163666323e+00
1.344098313803944045e+01,3.811076675946167391e+00
1.346098885395827338e+01,4.668152598341857029e+00
1.348099456987710809e+01,4.258748223397033073e+00
1.350100028579594280e+01,3.522798842947379327e+00
1.352100600171477573e+01,4.063741882281500573e+00
1.354101171763361044e+01,3.850982012774579299e+00
1.356101743355244338e+01,4.670405000342954693e+00
1.358102314947127809e+01,3.750755402854169418e+00
1.360102886539011102e+01,4.052665410814552338e+00
1.362103458130894573e+01,3.875028155427631127e+00
1.364104029722777867e+01,3.656221058137986368e+00
1.366104601314661338e+01,3.723685331760400175e+00
1.368105172906544809e+01,4.654966271881099793e+00
1.370105744498428102e+01,3.934912463102717251e+00
1.372106316090311573e+01,4.681794970946545398e+00
1.374106887682194866e+01,3.186262130982749241e+00
1.376107459274078337e+01,4.362739230937386914e+00
1.378108030865961808e+01,3.579757036312446239e+00
1.380108602457845102e+01,4.126240189310788509e+00
1.382109174049728573e+01,3.834024760845613944e+00
1.384109745641611866e+01,3.774470464947645709e+00
1.386110317233495337e+01,4.278058588454712208e+00
1.388110888825378808e+01,4.489913594041606615e+00
1.390111460417262101e+01,3.635674016845952927e+00
1.392112032009145395e+01,3.619223730543198236e+00
1.394112603601028866e+01,4.615723772990834917e+00
1.396113175192912337e+01,4.508334913549501444e+00
1.398113746784795630e+01,3.884323421585124336e+00
1.400114318376679101e+01,3.578606796169860438e+00
1.402114889968562395e+01,4.057804654317747506e+00
1.404115461560445866e+01,4.391605878958876552e+00
1.406116033152329337e+01,3.886844208930078537e+00
1.408116604744212630e+01,4.000698928004478461e+00
1.410117176336095923e+01,3.856643340327563507e+00
1.412117747927979394e+01,4.540717771375181400e+00
1.414118319519862865e+01,3.100404311030823479e+00
1.416118891111746336e+01,3.234966361233070575e+00
1.418119462703629630e+01,3.839471224088218282e+00
1.420120034295512923e+01,3.880646074758570485e+00
1.422120605887396394e+01,3.692602088454320253e+00
1.424121177479279865e+01,4.060966850006996864e+00
1.426121749071163336e+01,3.589550333604650589e+00
1.428122320663046629e+01,4.408812175180473858e+00
1.430122892254929923e+01,3.775625048737329514e+00
1.432123463846813394e+01,3.613437177288553848e+00
1.434124035438696865e+01,4.222150015718812099e+00
1.436124607030580158e+01,3.423376216292735030e+00
1.438125178622463629e+01,4.255066875970705986e+00
1.440125750214346922e+01,3.972357542970411437e+00
1.442126321806230393e+01,3.454785740445519782e+00
1.444126893398113864e+01,3.765668724950647750e+00
1.446127464989997158e+01,3.866137488108367215e+00
1.448128036581880451e+01,3.914064101075961588e+00
1.450128608173763922e+01,3.523430669624484146e+00
1.452129179765647393e+01,3.824776496412654048e+00
1.454129751357530864e+01,4.201812298061412321e+00
1.456130322949414158e+01,4.367680407022977107e+00
1.458130894541297451e+01,3.957759988931428996e+00
1.460131466133180922e+01,4.550891068486777158e+00
1.462132037725064393e+01,4.233903829001643082e+00
1.464132609316947686e+01,3.573212049553509129e+00
1.466133180908831157e+01,3.897610372860595085e+00
1.468133752500714451e+01,3.741176775373192598e+00
1.470134324092597922e+01,3.457180368227452227e+00
1.472134895684481393e+01,3.940704705178628142e+00
1.474135467276364686e+01,3.984253015099594286e+00
1.476136038868247979e+01,4.693505480043450362e+00
1.478136610460131450e+01,4.075225210157243261e+00
1.480137182052014921e+01,4.830954127476829285e+00
1.482137753643898392e+01,4.651367328018049641e+00
1.484138325235781686e+01,4.044752134158669854e+00
1.486138896827664979e+01,3.935048686702698806e+00
1.488139468419548450e+01,3.768145017012210829e+00
1.490140040011431921e+01,4.739771584601472298e+00
1.492140611603315392e+01,3.837843597667236928e+00
1.494141183195198685e+01,4.039033593233596342e+00
1.496141754787081979e+01,4.388611202488014840e+00
1.498142326378965450e+01,4.731987790062410326e+00
1.500142897970848921e+01,4.318928401330996536e+00
1.502143469562732214e+01,5.010713034864172855e+00
1.504144041154615508e+01,3.677713027771189580e+00
1.506144612746498979e+01,4.298269941882673528e+00
1.508145184338382450e+01,4.886048038215893285e+00
1.510145755930265921e+01,4.518151037360498279e+00
1.512146327522149214e+01,4.454250013405663289e+00
1.514146899114032507e+01,4.133059188951139440e+00
1.516147470705915978e+01,5.151369170759386051e+00
1.518148042297799449e+01,5.096003066612223797e+00
1.520148613889682920e+01,4.316765946934292941e+00
1.522149185481566214e+01,5.206940636135801270e+00
1.524149757073449507e+01,4.589044929642302151e+00
1.526150328665332978e+01,5.004964222419976849e+00
1.528150900257216449e+01,5.780125073483854514e+00
1.530151471849099742e+01,6.058721550073904893e+00
1.532152043440983036e+01,6.174490222019228369e+00
1.534152615032866507e+01,5.277099959800848339e+00
1.536153186624749978e+01,5.033243176060315349e+00
1.538153758216633449e+01,6.257945487395807582e+00
1.540154329808516742e+01,5.131382882285290492e+00
1.542154901400400036e+01,6.670008439108315201e+00
1.544155472992283507e+01,5.631766244159444490e+00
1.546156044584166978e+01,6.534597358389278909e+00
1.548156616176050449e+01,6.437424748412199804e+00
1.550157187767933742e+01,6.721044157571294697e+00
1.552157759359817035e+01,6.582963070180920084e+00
1.554158330951700506e+01,6.012720232220666539e+00
1.556158902543583977e+01,7.880964784923658151e+00
1.558159474135467271e+01,7.839217680349783279e+00
1.560160045727350742e+01,6.781365613983546758e+00
1.562160617319234035e+01,6.806241861516063807e+00
1.564161188911117506e+01,7.609738190710412908e+00
1.566161760503000977e+01,7.982665954938847008e+00
1.568162332094884270e+01,8.437151365477784992e+00
1.570162903686767564e+01,7.979059744772856178e+00
1.572163475278651035e+01,8.090619874032917380e+00
1.574164046870534506e+01,8.786733095505795177e+00
1.576164618462417977e+01,9.031887022877668869e+00
1.578165190054301270e+01,8.736937803170585326e+00
1.580165761646184563e+01,9.905612449400610586e+00
1.582166333238068034e+01,1.018598805975307542e+01
1.584166904829951505e+01,1.003049660385430464e+01
1.586167476421834799e+01,1.009925850089924637e+01
1.588168048013718270e+01,1.046065101227567773e+01
1.590168619605601563e+01,1.155314167225262878e+01
1.592169191197485034e+01,1.155650049730447115e+01
1.594169762789368505e+01,1.099329179480626628e+01
1.596170334381251799e+01,1.196288173804086696e+01
1.598170905973135092e+01,1.158635450209348505e+01
1.600171477565018563e+01,1.276884380653586426e+01
1.602172049156902034e+01,1.275253619694955098e+01
1.604172620748785505e+01,1.245493748662177858e+01
1.606173192340668976e+01,1.280206866027258528e+01
1.608173763932552092e+01,1.391008531137251936e+01
1.610174335524435563e+01,1.317956256214333344e+01
1.612174907116319034e+01,1.458877192319465621e+01
1.614175478708202505e+01,1.460430378864877099e+01
1.616176050300085620e+01,1.557413279549485097e+01
1.618176621891969091e+01,1.534429710035970729e+01
1.620177193483852562e+01,1.660658213011932460e+01
1.622177765075736033e+01,1.627920627342223980e+01
1.624178336667619504e+01,1.662455478108910611e+01
1.626178908259502620e+01,1.728287817789443181e+01
1.628179479851386091e+01,1.799609022164278826e+01
1.630180051443269562e+01,1.820850420616594789e+01
1.632180623035153033e+01,1.892458278235559987e+01
1.634181194627036149e+01,1.929844265479880505e+01
1.636181766218919620e+01,2.025821458731457270e+01
1.638182337810803091e+01,2.048970099097921604e+01
1.640182909402686562e+01,2.156376115425182860e+01
1.642183480994570033e+01,2.200643057722500728e+01
1.644184052586453504e+01,2.279181524547417226e+01
1.646184624178336620e+01,2.215605936015327870e+01
1.648185195770220091e+01,2.274884775420055405e+01
1.650185767362103562e+01,2.341878240648956933e+01
1.652186338953986677e+01,2.472793927473554731e+01
1.654186910545870148e+01,2.494663927726402974e+01
1.656187482137753619e+01,2.609084149059726343e+01
1.658188053729637090e+01,2.672854203963504460e+01
1.660188625321520561e+01,2.658853441196298206e+01
1.662189196913404032e+01,2.771155595580385622e+01
1.664189768505287148e+01,2.755657227646217677e+01
1.666190340097170619e+01,2.817877763720236217e+01
1.668190911689054090e+01,2.854579012692829210e+01
1.670191483280937561e+01,2.902635865704710483e+01
1.672192054872820677e+01,2.932383422672617002e+01
1.674192626464704148e+01,2.932998684258223676e+01
1.676193198056587619e+01,2.885152541189013675e+01
1.678193769648471090e+01,2.904210013460733109e+01
1.680194341240354561e+01,2.857463109046816641e+01
1.682194912832238032e+01,2.816769255448384612e+01
1.684195484424121148e+01,2.762341799093877270e+01
1.686196056016004619e+01,2.715911825013492376e+01
1.688196627607888090e+01,2.634230441718000293e+01
1.690197199199771205e+01,2.485033697020437771e+01
1.692197770791654676e+01,2.402863758768013369e+01
1.694198342383538147e+01,2.272383470554520102e+01
1.696198913975421618e+01,2.153015810338477110e+01
1.698199485567305089e+01,1.988980894768294405e+01
1.700200057159188560e+01,1.900284351142638428e+01
1.702200628751071676e+01,1.722481682487501686e+01
1.704201200342955147e+01,1.704222736549236572e+01
1.706201771934838618e+01,1.541602302617088505e+01
1.708202343526722089e+01,1.425227162463935571e+01
1.710202915118605205e+01,1.406399140787110191e+01
1.712203486710488676e+01,1.323548743705169173e+01
1.714204058302372147e+01,1.220319385780353372e+01
1.716204629894255618e+01,1.102833939221703830e+01
1.718205201486139089e+01,1.134572176656468478e+01
1.720205773078022204e+01,1.038457906964338662e+01
1.722206344669905675e+01,1.090115509423611329e+01
1.724206916261789146e+01,1.004035322338038227e+01
1.726207487853672617e+01,1.043053222924095813e+01
1.728208059445555733e+01,1.085796063363706665e+01
1.730208631037439204e+01,1.104230707456840932e+01
1.732209202629322675e+01,1.034777037220921159e+01
1.734209774221206146e+01,1.040818622895050716e+01
1.736210345813089617e+01,9.748941765523694514e+00
1.738210917404973088e+01,1.069968686533137614e+01
1.740211488996856204e+01,1.073483918790521052e+01
1.742212060588739675e+01,1.070152004786107724e+01
1.744212632180623146e+01,1.135058729061085714e+01
1.746213203772506262e+01,1.049161152036131739e+01
1.748213775364389733e+01,1.072558070554826770e+01
1.750214346956273204e+01,1.165899481300003160e+01
1.752214918548156675e+01,1.095668606248301558e+01
1.754215490140040146e+01,1.106094203902687667e+01
1.756216061731923617e+01,1.121141586349799191e+01
1.758216633323806732e+01,1.116303758279742198e+01
1.760217204915690203e+01,1.146243402985405346e+01
1.762217776507573674e+01,1.156170271583254916e+01
1.764218348099457145e+01,1.165548634066042055e+01
1.766218919691340261e+01,1.088601438005612110e+01
1.768219491283223732e+01,1.112075000262659508e+01
1.770220062875107203e+01,1.154053916090188636e+01
1.772220634466990674e+01,1.007702246490194042e+01
1.774221206058874145e+01,9.501476387088652942e+00
1.776221777650757616e+01,9.865342363162382000e+00
1.778222349242640732e+01,8.909680042789091203e+00
1.780222920834524203e+01,9.465039591884726988e+00
1.782223492426407674e+01,8.418523222913981030e+00
1.784224064018290790e+01,7.699017319988483266e+00
1.786224635610174261e+01,7.621984321327994749e+00
1.788225207202057732e+01,7.171010959913709293e+00
1.790225778793941203e+01,6.685508523073575127e+00
1.792226350385824674e+01,6.598261678444595546e+00
1.794226921977708145e+01,6.145615638832232719e+00
1.796227493569591260e+01,5.301369985979549782e+00
