angle,intensity
1.000000000000000000e+01,7.182220478613785986e+01
1.002000571591883471e+01,7.288100627512172025e+01
1.004001143183766764e+01,7.408860040474756659e+01
1.006001714775650235e+01,7.354060540320901396e+01
1.008002286367533529e+01,7.470894177712114015e+01
1.010002857959417000e+01,7.484310174958352491e+01
1.012003429551300293e+01,7.368031572488743564e+01
1.014004001143183764e+01,7.388757830939570681e+01
1.016004572735067235e+01,7.336595633228051838e+01
1.018005144326950528e+01,7.284837634830699926e+01
1.020005715918833999e+01,7.245087955952783432e+01
1.022006287510717293e+01,7.123826860157855378e+01
1.024006859102600764e+01,7.075058384345109630e+01
1.026007430694484057e+01,6.993890698370996972e+01
1.028008002286367528e+01,6.848709851100883839e+01
1.030008573878250999e+01,6.634320056332751392e+01
1.032009145470134293e+01,6.398321589963970268e+01
1.034009717062017764e+01,6.218906377410052499e+01
1.036010288653901057e+01,6.011923737330582895e+01
1.038010860245784528e+01,5.786653154633039264e+01
1.040011431837667999e+01,5.559737854301499738e+01
1.042012003429551292e+01,5.368729628424136280e+01
1.044012575021434763e+01,5.035626673992965152e+01
1.046013146613318057e+01,4.732482310279552706e+01
1.048013718205201528e+01,4.487700628968339345e+01
1.050014289797084821e+01,4.164740352935410783e+01
1.052014861388968292e+01,3.920166488045896358e+01
1.054015432980851585e+01,3.790186540093195333e+01
1.056016004572735056e+01,3.484294869547537843e+01
1.058016576164618527e+01,3.280639406734937324e+01
1.060017147756501821e+01,3.001121007226916859e+01
1.062017719348385292e+01,2.871105602193403428e+01
1.064018290940268585e+01,2.696896736656236726e+01
1.066018862532152056e+01,2.513084641879819259e+01
1.068019434124035527e+01,2.296498083137704782e+01
1.070020005715918820e+01,2.176427997584702467e+01
1.072020577307802292e+01,2.075390542447172493e+01
1.074021148899685585e+01,1.935478383652185030e+01
1.076021720491569056e+01,1.822679181452472363e+01
1.078022292083452349e+01,1.659026168578530758e+01
1.080022863675335820e+01,1.687571624196696618e+01
1.082023435267219291e+01,1.523289439017308666e+01
1.084024006859102585e+01,1.495190184078878914e+01
1.086024578450986056e+01,1.443118127753692015e+01
1.088025150042869349e+01,1.278339875720057961e+01
1.090025721634752820e+01,1.281243179479205985e+01
1.092026293226636113e+01,1.276646950015657467e+01
1.094026864818519584e+01,1.252048609883940600e+01
1.096027436410403055e+01,1.188749097879918892e+01
1.098028008002286349e+01,1.135305942401683410e+01
1.100028579594169820e+01,1.186104700148657543e+01
1.102029151186053113e+01,1.084322309166651266e+01
1.104029722777936584e+01,1.033861530622785097e+01
1.106030294369819877e+01,9.786348656603649943e+00
1.108030865961703348e+01,1.023557388397544088e+01
1.110031437553586819e+01,9.958832088836036434e+00
1.112032009145470113e+01,1.011647778471898285e+01
1.114032580737353584e+01,9.993962667302010772e+00
1.116033152329236877e+01,9.355642250393632509e+00
1.118033723921120348e+01,8.638227654777612230e+00
1.120034295513003642e+01,8.849195812274135875e+00
1.122034867104887113e+01,8.862146346675991992e+00
1.124035438696770584e+01,9.044896570462647389e+00
1.126036010288653877e+01,8.765966830129990228e+00
1.128036581880537348e+01,8.961764190071832559e+00
1.130037153472420641e+01,8.745665380490830643e+00
1.132037725064304112e+01,7.889912898221573379e+00
1.134038296656187583e+01,8.391531213359900931e+00
1.136038868248070877e+01,7.541705114232970075e+00
1.138039439839954348e+01,8.369504882750558039e+00
1.140040011431837641e+01,7.638497740200257624e+00
1.142040583023721112e+01,7.969871123536769630e+00
1.144041154615604405e+01,7.474169573776566544e+00
1.146041726207487876e+01,7.490445651125206439e+00
1.148042297799371170e+01,7.860702570047370941e+00
1.150042869391254641e+01,7.582071283075238810e+00
1.152043440983138112e+01,7.113701930025411180e+00
1.154044012575021405e+01,7.327994779448105511e+00
1.156044584166904876e+01,8.048333417324460726e+00
1.158045155758788169e+01,7.526512944970541241e+00
1.160045727350671640e+01,7.592562323953108816e+00
1.162046298942555111e+01,8.179879007160177906e+00
1.164046870534438405e+01,8.003697440784515393e+00
1.166047442126321876e+01,7.778488287127794720e+00
1.168048013718205169e+01,7.320067653738478342e+00
1.170048585310088640e+01,7.151572788843129302e+00
1.172049156901971934e+01,7.385036026295240141e+00
1.174049728493855405e+01,6.869731599844902448e+00
1.176050300085738698e+01,7.840884729009159670e+00
1.178050871677622169e+01,7.182629083959673366e+00
1.180051443269505640e+01,7.367862272385612421e+00
1.182052014861388933e+01,7.075923660681469940e+00
1.184052586453272404e+01,6.665057089795199730e+00
1.186053158045155698e+01,6.816905051588051379e+00
1.188053729637039169e+01,6.683520974404187243e+00
1.190054301228922640e+01,6.468407819359281774e+00
1.192054872820805933e+01,7.352644734409334859e+00
1.194055444412689404e+01,6.876761083574010058e+00
1.196056016004572697e+01,7.340111943283583962e+00
1.198056587596456168e+01,7.324674277615862650e+00
1.200057159188339639e+01,6.718453889709671500e+00
1.202057730780222933e+01,7.798108175322186142e+00
1.204058302372106226e+01,7.302830160723601693e+00
1.206058873963989697e+01,6.759393821512601264e+00
1.208059445555873168e+01,7.693847398468320442e+00
1.210060017147756461e+01,8.149363717955406372e+00
1.212060588739639932e+01,7.016588322355283402e+00
1.214061160331523226e+01,6.856618139667941314e+00
1.216061731923406697e+01,7.227708655571751351e+00
1.218062303515290168e+01,6.872562938685266687e+00
1.220062875107173461e+01,7.427743565674419735e+00
1.222063446699056932e+01,7.494580517105044137e+00
1.224064018290940226e+01,7.532779669184490601e+00
1.226064589882823697e+01,7.377664355611241120e+00
1.228065161474707168e+01,7.428288531338950840e+00
1.230065733066590461e+01,7.869046086444801524e+00
1.232066304658473754e+01,7.775474510071756384e+00
1.234066876250357225e+01,7.620992792652545589e+00
1.236067447842240696e+01,8.456063041752898357e+00
1.238068019434123990e+01,7.923300928429889645e+00
1.240068591026007461e+01,8.213036439224401519e+00
1.242069162617890754e+01,7.847353286527330773e+00
1.244069734209774225e+01,7.517094492864323740e+00
1.246070305801657696e+01,8.151105449006344372e+00
1.248070877393540989e+01,8.034308854305944436e+00
1.250071448985424460e+01,7.808348092696258291e+00
1.252072020577307754e+01,9.072519827736353903e+00
1.254072592169191225e+01,9.035795655811760696e+00
1.256073163761074696e+01,9.239486985090620053e+00
1.258073735352957989e+01,8.803986055489955831e+00
1.260074306944841460e+01,8.328872618822529716e+00
1.262074878536724754e+01,9.206176445961789412e+00
1.264075450128608225e+01,9.289060560710360903e+00
1.266076021720491518e+01,9.487731340499045984e+00
1.268076593312374989e+01,9.485165968134936065e+00
1.270077164904258282e+01,9.129001039372528936e+00
1.272077736496141753e+01,1.013754107270516869e+01
1.274078308088025224e+01,1.036151994788582620e+01
1.276078879679908518e+01,9.749709784019973569e+00
1.278079451271791989e+01,9.684045761993617774e+00
1.280080022863675282e+01,1.035839504415488221e+01
1.282080594455558753e+01,1.111097181405700418e+01
1.284081166047442224e+01,1.137807590055020945e+01
1.286081737639325517e+01,1.136556002430235779e+01
1.288082309231208988e+01,1.105916340143601850e+01
1.290082880823092282e+01,1.127612572790935985e+01
1.292083452414975753e+01,1.154577033016270704e+01
1.294084024006859224e+01,1.220877708837446285e+01
1.296084595598742517e+01,1.211627261444124670e+01
1.298085167190625810e+01,1.278709287085411361e+01
1.300085738782509281e+01,1.290135156597847654e+01
1.302086310374392752e+01,1.289902728101974816e+01
1.304086881966276046e+01,1.340048327037796483e+01
1.306087453558159517e+01,1.372115988761142091e+01
1.308088025150042810e+01,1.315048805156274803e+01
1.310088596741926281e+01,1.405495110198287989e+01
1.312089168333809752e+01,1.360196420188089306e+01
1.314089739925693046e+01,1.419109394497370147e+01
1.316090311517576517e+01,1.478235591426741102e+01
1.318090883109459810e+01,1.521332951248291110e+01
1.320091454701343281e+01,1.564095156433422495e+01
1.322092026293226752e+01,1.593773446280977524e+01
1.324092597885110045e+01,1.595170390687771977e+01
1.326093169476993339e+01,1.713304361108111351e+01
1.328093741068876810e+01,1.699324009671861191e+01
1.330094312660760281e+01,1.682203890261892099e+01
1.332094884252643574e+01,1.740255221939079533e+01
1.334095455844527045e+01,1.760019484077249885e+01
1.336096027436410338e+01,1.910481605195530719e+01
1.338096599028293809e+01,1.946450620756482408e+01
1.340097170620177280e+01,1.918435354284440564e+01
1.342097742212060574e+01,1.949271499927586859e+01
1.344098313803944045e+01,2.054049933960781971e+01
1.346098885395827338e+01,2.051241590481276944e+01
1.348099456987710809e+01,2.048950913273958463e+01
1.350100028579594280e+01,2.180725926511531299e+01
1.352100600171477573e+01,2.224942356362969775e+01
1.354101171763361044e+01,2.267442713824206635e+01
1.356101743355244338e+01,2.327412745677382944e+01
1.358102314947127809e+01,2.309785131903320021e+01
1.360102886539011102e+01,2.427273180943320341e+01
1.362103458130894573e+01,2.368685952632002767e+01
1.364104029722777867e+01,2.491710783615476643e+01
1.366104601314661338e+01,2.565246046999318352e+01
1.368105172906544809e+01,2.651569064596373693e+01
1.370105744498428102e+01,2.696788551997779138e+01
1.372106316090311573e+01,2.735161227848063703e+01
1.374106887682194866e+01,2.752931725700794630e+01
1.376107459274078337e+01,2.923877912833046011e+01
1.378108030865961808e+01,2.878987320480228362e+01
1.380108602457845102e+01,2.956366941910995294e+01
1.382109174049728573e+01,3.077545725161572676e+01
1.384109745641611866e+01,3.062204392840232003e+01
1.386110317233495337e+01,3.167709668485353092e+01
1.388110888825378808e+01,3.186293791176157697e+01
1.390111460417262101e+01,3.326298593273904913e+01
1.392112032009145395e+01,3.341971273471762771e+01
1.394112603601028866e+01,3.477016447646147412e+01
1.396113175192912337e+01,3.479449649548270429e+01
1.398113746784795630e+01,3.632195439910871215e+01
1.400114318376679101e+01,3.663394401452481475e+01
1.402114889968562395e+01,3.711872387895611780e+01
1.404115461560445866e+01,3.817727344937615896e+01
1.406116033152329337e+01,3.935652549908992626e+01
1.408116604744212630e+01,3.992711292003723145e+01
1.410117176336095923e+01,4.067155727509782537e+01
1.412117747927979394e+01,4.234334728509442414e+01
1.414118319519862865e+01,4.160222560430917582e+01
1.416118891111746336e+01,4.235746778523233047e+01
1.418119462703629630e+01,4.327265380225018987e+01
1.420120034295512923e+01,4.523958595460769772e+01
1.422120605887396394e+01,4.540216466876405832e+01
1.424121177479279865e+01,4.558008478500484273e+01
1.426121749071163336e+01,4.729791048137774823e+01
1.428122320663046629e+01,4.797932281659981157e+01
1.430122892254929923e+01,4.858096347011900207e+01
1.432123463846813394e+01,4.872535651297704362e+01
1.434124035438696865e+01,5.009143336912831046e+01
1.436124607030580158e+01,5.053083737985546975e+01
1.438125178622463629e+01,4.987818393880606038e+01
1.440125750214346922e+01,5.047054569807129099e+01
1.442126321806230393e+01,5.051776533235646127e+01
1.444126893398113864e+01,5.054057404293055811e+01
1.446127464989997158e+01,5.039013734710083270e+01
1.448128036581880451e+01,4.931657546787957358e+01
1.450128608173763922e+01,4.893056225705382190e+01
1.452129179765647393e+01,4.898503387047954760e+01
1.454129751357530864e+01,4.800935541792479455e+01
1.456130322949414158e+01,4.712910408312723121e+01
1.458130894541297451e+01,4.615057925220837376e+01
1.460131466133180922e+01,4.461072553628682869e+01
1.462132037725064393e+01,4.381684454396042128e+01
1.464132609316947686e+01,4.154737194397756639e+01
1.466133180908831157e+01,3.978001800938703525e+01
1.468133752500714451e+01,3.889394279659780551e+01
1.470134324092597922e+01,3.731490457360855828e+01
1.472134895684481393e+01,3.468102875615679181e+01
1.474135467276364686e+01,3.297154022605805324e+01
1.476136038868247979e+01,3.152762017817362761e+01
1.478136610460131450e+01,2.891671248035785169e+01
1.480137182052014921e+01,2.764546638439908577e+01
1.482137753643898392e+01,2.574784682755526433e+01
1.484138325235781686e+01,2.347417762239157923e+01
1.486138896827664979e+01,2.256937460055535638e+01
1.488139468419548450e+01,2.187740309625548818e+01
1.490140040011431921e+01,1.944088697183695302e+01
1.492140611603315392e+01,1.897899348116169449e+01
1.494141183195198685e+01,1.776455257623828388e+01
1.496141754787081979e+01,1.629101061635649472e+01
1.498142326378965450e+01,1.645954505373396159e+01
1.500142897970848921e+01,1.514398521482078053e+01
1.502143469562732214e+01,1.498039770257582148e+01
1.504144041154615508e+01,1.468755156932020967e+01
1.506144612746498979e+01,1.386934495164534376e+01
1.508145184338382450e+01,1.395706663434060424e+01
1.510145755930265921e+01,1.351729205779377274e+01
1.512146327522149214e+01,1.282285390635879452e+01
1.514146899114032507e+01,1.213492211242089347e+01
1.516147470705915978e+01,1.218001359836186026e+01
1.518148042297799449e+01,1.218482587909965176e+01
1.520148613889682920e+01,1.135286568176897148e+01
1.522149185481566214e+01,1.133079108090588605e+01
1.524149757073449507e+01,1.121906305471450693e+01
1.526150328665332978e+01,1.195012357353562926e+01
1.528150900257216449e+01,1.135574758322058742e+01
1.530151471849099742e+01,1.078979316687557244e+01
1.532152043440983036e+01,1.157749569978080117e+01
1.534152615032866507e+01,1.136204236063793971e+01
1.536153186624749978e+01,1.157758277247673462e+01
1.538153758216633449e+01,1.084436263986620830e+01
1.540154329808516742e+01,1.119807994033864418e+01
1.542154901400400036e+01,1.181428933820686744e+01
1.544155472992283507e+01,1.142361544065806100e+01
1.546156044584166978e+01,1.162779996065182075e+01
1.548156616176050449e+01,1.169905711536775783e+01
1.550157187767933742e+01,1.252748227607339970e+01
1.552157759359817035e+01,1.161515591526068469e+01
1.554158330951700506e+01,1.175690610257664126e+01
1.556158902543583977e+01,1.258547570198745724e+01
1.558159474135467271e+01,1.265037810289290299e+01
1.560160045727350742e+01,1.346877203343528784e+01
1.562160617319234035e+01,1.349138421759353967e+01
1.564161188911117506e+01,1.312456707206303541e+01
1.566161760503000977e+01,1.421141888749180282e+01
1.568162332094884270e+01,1.392024001638741204e+01
1.570162903686767564e+01,1.431553436047859051e+01
1.572163475278651035e+01,1.402195896235700801e+01
1.574164046870534506e+01,1.523087641623937927e+01
1.576164618462417977e+01,1.495161876307370719e+01
1.578165190054301270e+01,1.571924747969224967e+01
1.580165761646184563e+01,1.668094591499001211e+01
1.582166333238068034e+01,1.638089292195866520e+01
1.584166904829951505e+01,1.660697147519112349e+01
1.586167476421834799e+01,1.777397447960013110e+01
1.588168048013718270e+01,1.800020176085186563e+01
1.590168619605601563e+01,1.826251232535705782e+01
1.592169191197485034e+01,1.978695103571536862e+01
1.594169762789368505e+01,2.007230906492232947e+01
1.596170334381251799e+01,2.051970191062792281e+01
1.598170905973135092e+01,2.127000601435134541e+01
1.600171477565018563e+01,2.148348108381057742e+01
1.602172049156902034e+01,2.292843618308738129e+01
1.604172620748785505e+01,2.340840959803713872e+01
1.606173192340668976e+01,2.348555188229532575e+01
1.608173763932552092e+01,2.427041841611839246e+01
1.610174335524435563e+01,2.471128746300717793e+01
1.612174907116319034e+01,2.654326372208614515e+01
1.614175478708202505e+01,2.629765401855091511e+01
1.616176050300085620e+01,2.766093954626979468e+01
1.618176621891969091e+01,2.860219218757969628e+01
1.620177193483852562e+01,2.946647311653269696e+01
1.622177765075736033e+01,3.129704054105682332e+01
1.624178336667619504e+01,3.129303189481026592e+01
1.626178908259502620e+01,3.317604912621072799e+01
1.628179479851386091e+01,3.309461219781737640e+01
1.630180051443269562e+01,3.473492054159922304e+01
1.632180623035153033e+01,3.614941432880907968e+01
1.634181194627036149e+01,3.663519458826412745e+01
1.636181766218919620e+01,3.835443694646114210e+01
1.638182337810803091e+01,3.960878155401769618e+01
1.640182909402686562e+01,4.090216824365558068e+01
1.642183480994570033e+01,4.220443238759835225e+01
1.644184052586453504e+01,4.367321635144703862e+01
1.646184624178336620e+01,4.446186490209195341e+01
1.648185195770220091e+01,4.743340910063449201e+01
1.650185767362103562e+01,4.873326728958849685e+01
1.652186338953986677e+01,4.969270889951769732e+01
1.654186910545870148e+01,5.162832802466400040e+01
1.656187482137753619e+01,5.298437008507661261e+01
1.658188053729637090e+01,5.404423073905867625e+01
1.660188625321520561e+01,5.680756260533502910e+01
1.662189196913404032e+01,5.834232615474128636e+01
1.664189768505287148e+01,6.024918528276229779e+01
1.666190340097170619e+01,6.200993798572831395e+01
1.668190911689054090e+01,6.350870274475515487e+01
1.670191483280937561e+01,6.545082760213674078e+01
1.672192054872820677e+01,6.753385329684883231e+01
1.674192626464704148e+01,6.907886251896124463e+01
1.676193198056587619e+01,7.117003380112689115e+01
1.678193769648471090e+01,7.349148777846531289e+01
1.680194341240354561e+01,7.549034460732850960e+01
1.682194912832238032e+01,7.703201763530478274e+01
1.684195484424121148e+01,7.883399944916214963e+01
1.686196056016004619e+01,8.262868471710689278e+01
1.688196627607888090e+01,8.329173818915646166e+01
1.690197199199771205e+01,8.574565140114899009e+01
1.692197770791654676e+01,8.745313707695306960e+01
1.694198342383538147e+01,9.031965006243055427e+01
1.696198913975421618e+01,9.125485157590998142e+01
1.698199485567305089e+01,9.359157099353060971e+01
1.700200057159188560e+01,9.395154895863583988e+01
1.702200628751071676e+01,9.561221964207362589e+01
1.704201200342955147e+01,9.693470434874978992e+01
1.706201771934838618e+01,9.764489863641357204e+01
1.708202343526722089e+01,9.886253964454246557e+01
1.710202915118605205e+01,9.969488689425844541e+01
1.712203486710488676e+01,9.939014328898217343e+01
1.714204058302372147e+01,1.000000000000000000e+02
1.716204629894255618e+01,9.967708835659345823e+01
1.718205201486139089e+01,9.935363182286326378e+01
1.720205773078022204e+01,9.822761229198312094e+01
1.722206344669905675e+01,9.692195291067038454e+01
1.724206916261789146e+01,9.601412220748693471e+01
1.726207487853672617e+01,9.402340140481422281e+01
1.728208059445555733e+01,9.227167660387470960e+01
1.730208631037439204e+01,9.083062645952813341e+01
1.732209202629322675e+01,8.893833658620228277e+01
1.734209774221206146e+01,8.767343641771270768e+01
1.736210345813089617e+01,8.530789014892067712e+01
1.738210917404973088e+01,8.326731831645216175e+01
1.740211488996856204e+01,8.215716177345004212e+01
1.742212060588739675e+01,7.969794908899807240e+01
1.744212632180623146e+01,7.862913321424370849e+01
1.746213203772506262e+01,7.743883757077213659e+01
1.748213775364389733e+01,7.592084955685338343e+01
1.750214346956273204e+01,7.510083574041358645e+01
1.752214918548156675e+01,7.413458745252555104e+01
1.754215490140040146e+01,7.410256717358393530e+01
1.756216061731923617e+01,7.474878670772160660e+01
1.758216633323806732e+01,7.407890528686823473e+01
1.760217204915690203e+01,7.403906920165101724e+01
1.762217776507573674e+01,7.387138753079693743e+01
1.764218348099457145e+01,7.471460264137152762e+01
1.766218919691340261e+01,7.456708338736459041e+01
1.768219491283223732e+01,7.485196250278022490e+01
1.770220062875107203e+01,7.503197703782601025e+01
1.772220634466990674e+01,7.542397879813367467e+01
1.774221206058874145e+01,7.526415608266097479e+01
1.776221777650757616e+01,7.680423599845161675e+01
1.778222349242640732e+01,7.666246572804955406e+01
1.780222920834524203e+01,7.626661807201358556e+01
1.782223492426407674e+01,7.581691384430419589e+01
1.784224064018290790e+01,7.610270623950646041e+01
1.786224635610174261e+01,7.504459651097971573e+01
1.788225207202057732e+01,7.362551973588684007e+01
1.790225778793941203e+01,7.279242641217771848e+01
1.792226350385824674e+01,7.096117879850643817e+01
1.794226921977708145e+01,6.911522454758235767e+01
1.796227493569591260e+01,6.695125710384431272e+01
