angle,intensity
1.000000000000000000e+01,9.535854437523609306e+01
1.002000571591883471e+01,9.627838367261267649e+01
1.004001143183766764e+01,9.702421422705181442e+01
1.006001714775650235e+01,9.777317931994228672e+01
1.008002286367533529e+01,9.813381360211826632e+01
1.010002857959417000e+01,9.885659781694786830e+01
1.012003429551300293e+01,9.953499392486236275e+01
1.014004001143183764e+01,9.914539698509244658e+01
1.016004572735067235e+01,9.997092198026881249e+01
1.018005144326950528e+01,9.913953323055986289e+01
1.020005715918833999e+01,9.914524984655892581e+01
1.022006287510717293e+01,9.853359816626222312e+01
1.024006859102600764e+01,9.627468003681937603e+01
1.026007430694484057e+01,9.612332999648344867e+01
1.028008002286367528e+01,9.345865108189556736e+01
1.030008573878250999e+01,9.152217102080848576e+01
1.032009145470134293e+01,8.836304205725612348e+01
1.034009717062017764e+01,8.507887064767834318e+01
1.036010288653901057e+01,8.185161319895961185e+01
1.038010860245784528e+01,7.734843208809547832e+01
1.040011431837667999e+01,7.357924034236685884e+01
1.042012003429551292e+01,6.834281315176571070e+01
1.044012575021434763e+01,6.305800748064622496e+01
1.046013146613318057e+01,5.772186653322164318e+01
1.048013718205201528e+01,5.343823374660275505e+01
1.050014289797084821e+01,4.768495179571337417e+01
1.052014861388968292e+01,4.368213910819012824e+01
1.054015432980851585e+01,3.878562424737775416e+01
1.056016004572735056e+01,3.670715621520953675e+01
1.058016576164618527e+01,3.283148438049544637e+01
1.060017147756501821e+01,2.935467422552347116e+01
1.062017719348385292e+01,2.805220735205248772e+01
1.064018290940268585e+01,2.604351818161046594e+01
1.066018862532152056e+01,2.452917266326065970e+01
1.068019434124035527e+01,2.369303793747434383e+01
1.070020005715918820e+01,2.378440759915105218e+01
1.072020577307802292e+01,2.326780613142133092e+01
1.074021148899685585e+01,2.189983746998793990e+01
1.076021720491569056e+01,2.154773842991848198e+01
1.078022292083452349e+01,2.253783339391106466e+01
1.080022863675335820e+01,2.188459413018089350e+01
1.082023435267219291e+01,2.169780463894449696e+01
1.084024006859102585e+01,2.233681269305717976e+01
1.086024578450986056e+01,2.219741041761315614e+01
1.088025150042869349e+01,2.160845361298449419e+01
1.090025721634752820e+01,2.302753530317222896e+01
1.092026293226636113e+01,2.282059876521500286e+01
1.094026864818519584e+01,2.308568962384370593e+01
1.096027436410403055e+01,2.288803710053535667e+01
1.098028008002286349e+01,2.420571090586855689e+01
1.100028579594169820e+01,2.412628145837416582e+01
1.102029151186053113e+01,2.422872707844507900e+01
1.104029722777936584e+01,2.464693985001691701e+01
1.106030294369819877e+01,2.423421352115236260e+01
1.108030865961703348e+01,2.538238410805862344e+01
1.110031437553586819e+01,2.618830539748861241e+01
1.112032009145470113e+01,2.666068542877591341e+01
1.114032580737353584e+01,2.722934065187701691e+01
1.116033152329236877e+01,2.716171277512844640e+01
1.118033723921120348e+01,2.725400863684213704e+01
1.120034295513003642e+01,2.803903296929351185e+01
1.122034867104887113e+01,2.789771519707162639e+01
1.124035438696770584e+01,2.882461928290630482e+01
1.126036010288653877e+01,3.032736425264316438e+01
1.128036581880537348e+01,2.968289705510014898e+01
1.130037153472420641e+01,3.094538141367239348e+01
1.132037725064304112e+01,3.120649923281582261e+01
1.134038296656187583e+01,3.166362432574576502e+01
1.136038868248070877e+01,3.263519301736648970e+01
1.138039439839954348e+01,3.297259687270119599e+01
1.140040011431837641e+01,3.405861529519503250e+01
1.142040583023721112e+01,3.420323228580270580e+01
1.144041154615604405e+01,3.428907304716302917e+01
1.146041726207487876e+01,3.564092439882514896e+01
1.148042297799371170e+01,3.624085757328760593e+01
1.150042869391254641e+01,3.732294055488199547e+01
1.152043440983138112e+01,3.782767384042259806e+01
1.154044012575021405e+01,3.792485254573441011e+01
1.156044584166904876e+01,3.846813312622056458e+01
1.158045155758788169e+01,4.038872665652911564e+01
1.160045727350671640e+01,4.041731898258986178e+01
1.162046298942555111e+01,4.081053994879703595e+01
1.164046870534438405e+01,4.220347966275772222e+01
1.166047442126321876e+01,4.251257742361857339e+01
1.168048013718205169e+01,4.240621465507682331e+01
1.170048585310088640e+01,4.309115156209092135e+01
1.172049156901971934e+01,4.384935226511039019e+01
1.174049728493855405e+01,4.389990357038758617e+01
1.176050300085738698e+01,4.498935473403194862e+01
1.178050871677622169e+01,4.413004337443111069e+01
1.180051443269505640e+01,4.433625611176515235e+01
1.182052014861388933e+01,4.465202805022478572e+01
1.184052586453272404e+01,4.526498172880243231e+01
1.186053158045155698e+01,4.425336670696776764e+01
1.188053729637039169e+01,4.388522586011097815e+01
1.190054301228922640e+01,4.369454102670593443e+01
1.192054872820805933e+01,4.344514547444362051e+01
1.194055444412689404e+01,4.186605075103076956e+01
1.196056016004572697e+01,4.058944813996802026e+01
1.198056587596456168e+01,3.973455162723216461e+01
1.200057159188339639e+01,3.788638056734575343e+01
1.202057730780222933e+01,3.609005108276680573e+01
1.204058302372106226e+01,3.368128384253499519e+01
1.206058873963989697e+01,3.130082033219240145e+01
1.208059445555873168e+01,2.927505548112436173e+01
1.210060017147756461e+01,2.742567006848695144e+01
1.212060588739639932e+01,2.516561111896144709e+01
1.214061160331523226e+01,2.353412036094921689e+01
1.216061731923406697e+01,2.066517438903967019e+01
1.218062303515290168e+01,1.823471859050001953e+01
1.220062875107173461e+01,1.582068903119329129e+01
1.222063446699056932e+01,1.349281546268489507e+01
1.224064018290940226e+01,1.296253462710034476e+01
1.226064589882823697e+01,1.134472268839116893e+01
1.228065161474707168e+01,9.999682073026637141e+00
1.230065733066590461e+01,9.511014810292424571e+00
1.232066304658473754e+01,7.618267151421183492e+00
1.234066876250357225e+01,7.192372326750396283e+00
1.236067447842240696e+01,7.267002800365599313e+00
1.238068019434123990e+01,6.928742118271300043e+00
1.240068591026007461e+01,6.147554957440730661e+00
1.242069162617890754e+01,5.729485959080617086e+00
1.244069734209774225e+01,5.950966405708003393e+00
1.246070305801657696e+01,4.537482441791582666e+00
1.248070877393540989e+01,5.636263292626679799e+00
1.250071448985424460e+01,5.420286037528314615e+00
1.252072020577307754e+01,4.865648008941494851e+00
1.254072592169191225e+01,4.586455135259550175e+00
1.256073163761074696e+01,4.630112180346390716e+00
1.258073735352957989e+01,4.948704448147373647e+00
1.260074306944841460e+01,5.001280837982829297e+00
1.262074878536724754e+01,4.044351002720087074e+00
1.264075450128608225e+01,4.802047974329358482e+00
1.266076021720491518e+01,4.149103985433329811e+00
1.268076593312374989e+01,3.565970819924453750e+00
1.270077164904258282e+01,4.737512069046664998e+00
1.272077736496141753e+01,3.780235693184690327e+00
1.274078308088025224e+01,4.636274672993200063e+00
1.276078879679908518e+01,4.902479303144141376e+00
1.278079451271791989e+01,4.142489040180683979e+00
1.280080022863675282e+01,4.267326147480380527e+00
1.282080594455558753e+01,3.827090623528646596e+00
1.284081166047442224e+01,4.402235311292565179e+00
1.286081737639325517e+01,3.798305666907010103e+00
1.288082309231208988e+01,3.737673748067008361e+00
1.290082880823092282e+01,3.533133090700473655e+00
1.292083452414975753e+01,4.045699210564787762e+00
1.294084024006859224e+01,4.305468913686336663e+00
1.296084595598742517e+01,4.142440127734186461e+00
1.298085167190625810e+01,4.001412147577172007e+00
1.300085738782509281e+01,4.400565629611140395e+00
1.302086310374392752e+01,3.861311546034683850e+00
1.304086881966276046e+01,4.193831506505026674e+00
1.306087453558159517e+01,4.051198172121882379e+00
1.308088025150042810e+01,3.251578513173360108e+00
1.310088596741926281e+01,3.422617515010965228e+00
1.312089168333809752e+01,3.827674459974762300e+00
1.314089739925693046e+01,4.292958059344102573e+00
1.316090311517576517e+01,4.051280233143331522e+00
1.318090883109459810e+01,3.492116957268346589e+00
1.320091454701343281e+01,3.881111461264978857e+00
1.322092026293226752e+01,4.101029934156088963e+00
1.324092597885110045e+01,3.479080003631472628e+00
1.326093169476993339e+01,4.255232005697976660e+00
1.328093741068876810e+01,3.400847008089765033e+00
1.330094312660760281e+01,3.712128290607589420e+00
1.332094884252643574e+01,4.316706740286863742e+00
1.334095455844527045e+01,4.344899768170111365e+00
1.336096027436410338e+01,4.001803860482323394e+00
1.338096599028293809e+01,3.980561167413771528e+00
1.340097170620177280e+01,3.750842991798575277e+00
1.342097742212060574e+01,3.765022655780141392e+00
1.344098313803944045e+01,3.397915058695596180e+00
1.346098885395827338e+01,3.202207426050061478e+00
1.348099456987710809e+01,3.528981598585729795e+00
1.350100028579594280e+01,3.133808112850991812e+00
1.352100600171477573e+01,2.906057858534953020e+00
1.354101171763361044e+01,3.817227452890768369e+00
1.356101743355244338e+01,3.856722043138010037e+00
1.358102314947127809e+01,3.446088175270213938e+00
1.360102886539011102e+01,3.707487847016223359e+00
1.362103458130894573e+01,3.817573939732102684e+00
1.364104029722777867e+01,2.996748614707752445e+00
1.366104601314661338e+01,4.228205860494208324e+00
1.368105172906544809e+01,4.631039923433509564e+00
1.370105744498428102e+01,4.143288989835388847e+00
1.372106316090311573e+01,2.835292412111310334e+00
1.374106887682194866e+01,3.583507041922158187e+00
1.376107459274078337e+01,3.668697014299353576e+00
1.378108030865961808e+01,3.945217904171441248e+00
1.380108602457845102e+01,4.473743118381129591e+00
1.382109174049728573e+01,3.903225432604176426e+00
1.384109745641611866e+01,3.970493744569354444e+00
1.386110317233495337e+01,3.460827949631858136e+00
1.388110888825378808e+01,3.652018490729979305e+00
1.390111460417262101e+01,4.362001544829193556e+00
1.392112032009145395e+01,3.374365934018979996e+00
1.394112603601028866e+01,3.273502809430280713e+00
1.396113175192912337e+01,4.479434841847149684e+00
1.398113746784795630e+01,3.325295715630834259e+00
1.400114318376679101e+01,3.161865196603146799e+00
1.402114889968562395e+01,3.468682031686822320e+00
1.404115461560445866e+01,3.652126326136626133e+00
1.406116033152329337e+01,3.298052635474998162e+00
1.408116604744212630e+01,3.591537439617441319e+00
1.410117176336095923e+01,3.754815769467748865e+00
1.412117747927979394e+01,3.026413406343568813e+00
1.414118319519862865e+01,3.936888608159410552e+00
1.416118891111746336e+01,3.758271066190122411e+00
1.418119462703629630e+01,3.197023440640751168e+00
1.420120034295512923e+01,3.995757709133268332e+00
1.422120605887396394e+01,4.260946137020201974e+00
1.424121177479279865e+01,3.921468943865555890e+00
1.426121749071163336e+01,3.123928990256029437e+00
1.428122320663046629e+01,3.657665402317934245e+00
1.430122892254929923e+01,3.707949604709124714e+00
1.432123463846813394e+01,4.228894892522492732e+00
1.434124035438696865e+01,4.266290343158248177e+00
1.436124607030580158e+01,3.835972020373872748e+00
1.438125178622463629e+01,3.749592682146637657e+00
1.440125750214346922e+01,3.576039129989058374e+00
1.442126321806230393e+01,3.819148093871967298e+00
1.444126893398113864e+01,3.114802608847731413e+00
1.446127464989997158e+01,4.101437372520251756e+00
1.448128036581880451e+01,3.766246814102677476e+00
1.450128608173763922e+01,3.949201986345856508e+00
1.452129179765647393e+01,3.813008837844990673e+00
1.454129751357530864e+01,3.998832162884801367e+00
1.456130322949414158e+01,3.759356175125798671e+00
1.458130894541297451e+01,3.631651931820117696e+00
1.460131466133180922e+01,3.397754023516497135e+00
1.462132037725064393e+01,4.156625375324139782e+00
1.464132609316947686e+01,3.868100336402513939e+00
1.466133180908831157e+01,4.390905030647470397e+00
1.468133752500714451e+01,3.086791803231658360e+00
1.470134324092597922e+01,3.355579033497202879e+00
1.472134895684481393e+01,3.400354376133776668e+00
1.474135467276364686e+01,3.676896637666312806e+00
1.476136038868247979e+01,4.452977114514134804e+00
1.478136610460131450e+01,4.235339570202706128e+00
1.480137182052014921e+01,3.885971430192523890e+00
1.482137753643898392e+01,3.526007857117964939e+00
1.484138325235781686e+01,3.819630702581444659e+00
1.486138896827664979e+01,3.360700378330571336e+00
1.488139468419548450e+01,3.657800024931371574e+00
1.490140040011431921e+01,4.382392978802373662e+00
1.492140611603315392e+01,3.208159358957781482e+00
1.494141183195198685e+01,4.046051533427839964e+00
1.496141754787081979e+01,3.489595245076763774e+00
1.498142326378965450e+01,3.254648535375062046e+00
1.500142897970848921e+01,4.363657425773210363e+00
1.502143469562732214e+01,3.680193332025974318e+00
1.504144041154615508e+01,4.127199243963717734e+00
1.506144612746498979e+01,3.821337277336230187e+00
1.508145184338382450e+01,4.238096230289565725e+00
1.510145755930265921e+01,4.299942180492180910e+00
1.512146327522149214e+01,4.602166555389691993e+00
1.514146899114032507e+01,4.602747338271963251e+00
1.516147470705915978e+01,4.480181862018341121e+00
1.518148042297799449e+01,4.194843199368725628e+00
1.520148613889682920e+01,4.403044506960591242e+00
1.522149185481566214e+01,4.696076833073376200e+00
1.524149757073449507e+01,4.953815948850221140e+00
1.526150328665332978e+01,4.723474103890962006e+00
1.528150900257216449e+01,4.453473832027627033e+00
1.530151471849099742e+01,5.352049521727069603e+00
1.532152043440983036e+01,5.866223487150172389e+00
1.534152615032866507e+01,5.800346626253623405e+00
1.536153186624749978e+01,5.563449453015346435e+00
1.538153758216633449e+01,6.134967886235680012e+00
1.540154329808516742e+01,5.442432539872473107e+00
1.542154901400400036e+01,5.841102116157325774e+00
1.544155472992283507e+01,5.214435396841362369e+00
1.546156044584166978e+01,6.017687102369689178e+00
1.548156616176050449e+01,6.158696591285274025e+00
1.550157187767933742e+01,6.429972895282919154e+00
1.552157759359817035e+01,7.190542416487284427e+00
1.554158330951700506e+01,7.205315728924934326e+00
1.556158902543583977e+01,7.308047583510401068e+00
1.558159474135467271e+01,6.568364160495429260e+00
1.560160045727350742e+01,6.936102079578216006e+00
1.562160617319234035e+01,6.886606983424847783e+00
1.564161188911117506e+01,7.450309844363376399e+00
1.566161760503000977e+01,8.233875481021268428e+00
1.568162332094884270e+01,8.840452831167144865e+00
1.570162903686767564e+01,7.931034442997658473e+00
1.572163475278651035e+01,8.532131665093993789e+00
1.574164046870534506e+01,8.440555717789839818e+00
1.576164618462417977e+01,8.988659482920338561e+00
1.578165190054301270e+01,9.849405003426859651e+00
1.580165761646184563e+01,8.864126918123947263e+00
1.582166333238068034e+01,9.966963621961429709e+00
1.584166904829951505e+01,9.431904325480758189e+00
1.586167476421834799e+01,1.000875575297913755e+01
1.588168048013718270e+01,1.098966476370476109e+01
1.590168619605601563e+01,1.131442348600269199e+01
1.592169191197485034e+01,1.127303296311211511e+01
1.594169762789368505e+01,1.195781417723075890e+01
1.596170334381251799e+01,1.208297168491979789e+01
1.598170905973135092e+01,1.277066959293345860e+01
1.600171477565018563e+01,1.210819086712971782e+01
1.602172049156902034e+01,1.335732593168730276e+01
1.604172620748785505e+01,1.346032476360946717e+01
1.606173192340668976e+01,1.408123924225784940e+01
1.608173763932552092e+01,1.400858234945556191e+01
1.610174335524435563e+01,1.513710300527404762e+01
1.612174907116319034e+01,1.459066176177573837e+01
1.614175478708202505e+01,1.503350594455088007e+01
1.616176050300085620e+01,1.612079364896938927e+01
1.618176621891969091e+01,1.631008382425526548e+01
1.620177193483852562e+01,1.667480712995548586e+01
1.622177765075736033e+01,1.659736312100699962e+01
1.624178336667619504e+01,1.803923210846582492e+01
1.626178908259502620e+01,1.754891413337670159e+01
1.628179479851386091e+01,1.914544593536371764e+01
1.630180051443269562e+01,1.955362556937101459e+01
1.632180623035153033e+01,1.978135490099872840e+01
1.634181194627036149e+01,2.095903704661553135e+01
1.636181766218919620e+01,2.161354152011828234e+01
1.638182337810803091e+01,2.180881050839906266e+01
1.640182909402686562e+01,2.282580186409263945e+01
1.642183480994570033e+01,2.300218087579025550e+01
1.644184052586453504e+01,2.344326091430213665e+01
1.646184624178336620e+01,2.375006543289745764e+01
1.648185195770220091e+01,2.430672697645137958e+01
1.650185767362103562e+01,2.532861018542083187e+01
1.652186338953986677e+01,2.551776305760461128e+01
1.654186910545870148e+01,2.693191036039205244e+01
1.656187482137753619e+01,2.829815612778090639e+01
1.658188053729637090e+01,2.909229047034988724e+01
1.660188625321520561e+01,2.979960495336995763e+01
1.662189196913404032e+01,2.958526158897153024e+01
1.664189768505287148e+01,3.106523207332768521e+01
1.666190340097170619e+01,3.139691667132738928e+01
1.668190911689054090e+01,3.218852618131239751e+01
1.670191483280937561e+01,3.304723605242172368e+01
1.672192054872820677e+01,3.290857759255072779e+01
1.674192626464704148e+01,3.464650494497237787e+01
1.676193198056587619e+01,3.474184199586460409e+01
1.678193769648471090e+01,3.443814310491757169e+01
1.680194341240354561e+01,3.502566968277290016e+01
1.682194912832238032e+01,3.540522310084548963e+01
1.684195484424121148e+01,3.463928152556776752e+01
1.686196056016004619e+01,3.446646525641312309e+01
1.688196627607888090e+01,3.475370619599362954e+01
1.690197199199771205e+01,3.398037839072897270e+01
1.692197770791654676e+01,3.190161184245132731e+01
1.694198342383538147e+01,3.209123245433080029e+01
1.696198913975421618e+01,3.019059488106515232e+01
1.698199485567305089e+01,2.924456223202702887e+01
1.700200057159188560e+01,2.667219200180728933e+01
1.702200628751071676e+01,2.475872426110288416e+01
1.704201200342955147e+01,2.315162381400209668e+01
1.706201771934838618e+01,2.207773611303709771e+01
1.708202343526722089e+01,1.961345595123036745e+01
1.710202915118605205e+01,1.754008493061111551e+01
1.712203486710488676e+01,1.557411225465477145e+01
1.714204058302372147e+01,1.391298394316644149e+01
1.716204629894255618e+01,1.230233028355462110e+01
1.718205201486139089e+01,1.076702235728217261e+01
1.720205773078022204e+01,1.002494287699642150e+01
1.722206344669905675e+01,8.564602140940653641e+00
1.724206916261789146e+01,7.760510619891038075e+00
1.726207487853672617e+01,6.845454295745828865e+00
1.728208059445555733e+01,6.812589929717077553e+00
1.730208631037439204e+01,6.039124546531578375e+00
1.732209202629322675e+01,6.060233515014906480e+00
1.734209774221206146e+01,6.160471031147714882e+00
1.736210345813089617e+01,5.655284531054514119e+00
1.738210917404973088e+01,5.285125850935584069e+00
1.740211488996856204e+01,5.044888184933721931e+00
1.742212060588739675e+01,5.355884064983177595e+00
1.744212632180623146e+01,4.768414384015921215e+00
1.746213203772506262e+01,4.683677732529897497e+00
1.748213775364389733e+01,3.982818154504573549e+00
1.750214346956273204e+01,4.139362817966108388e+00
1.752214918548156675e+01,5.307770395766308269e+00
1.754215490140040146e+01,4.801251815923269106e+00
1.756216061731923617e+01,3.822603614285958074e+00
1.758216633323806732e+01,4.036466578474533051e+00
1.760217204915690203e+01,4.086372826809301806e+00
1.762217776507573674e+01,4.571554834700908287e+00
1.764218348099457145e+01,4.507123080568876006e+00
1.766218919691340261e+01,4.604413480670656256e+00
1.768219491283223732e+01,5.059986115590524136e+00
1.770220062875107203e+01,4.301950624398054757e+00
1.772220634466990674e+01,4.715630389217004392e+00
1.774221206058874145e+01,4.770398376430627252e+00
1.776221777650757616e+01,5.077853587616372621e+00
1.778222349242640732e+01,3.809114240412680097e+00
1.780222920834524203e+01,4.558975645290571421e+00
1.782223492426407674e+01,4.935151450719585497e+00
1.784224064018290790e+01,4.254705866770913225e+00
1.786224635610174261e+01,4.270466872046737805e+00
1.788225207202057732e+01,4.893521959677671340e+00
1.790225778793941203e+01,4.898778035480824578e+00
1.792226350385824674e+01,5.055847263579194895e+00
1.794226921977708145e+01,4.576037287234008488e+00
1.796227493569591260e+01,4.553108726014269081e+00
