angle,intensity
1.000000000000000000e+01,8.004638507489248411e+01
1.002000571591883471e+01,9.170196672274734340e+01
1.004001143183766764e+01,9.347151242852731912e+01
1.006001714775650235e+01,9.324467209670943646e+01
1.008002286367533529e+01,9.344107563540612205e+01
1.010002857959417000e+01,9.423142529502905518e+01
1.012003429551300293e+01,9.364543696644551574e+01
1.014004001143183764e+01,9.415678065200773972e+01
1.016004572735067235e+01,9.357996003099154336e+01
1.018005144326950528e+01,9.296213946205853063e+01
1.020005715918833999e+01,9.361526656300753757e+01
1.022006287510717293e+01,9.246633945039548053e+01
1.024006859102600764e+01,9.081733108141727939e+01
1.026007430694484057e+01,8.848167722805615654e+01
1.028008002286367528e+01,8.659481666838073011e+01
1.030008573878250999e+01,8.482931025000168290e+01
1.032009145470134293e+01,8.161633712142420904e+01
1.034009717062017764e+01,7.877998511979789953e+01
1.036010288653901057e+01,7.489602252145192551e+01
1.038010860245784528e+01,7.123078486415023747e+01
1.040011431837667999e+01,6.816861858759511961e+01
1.042012003429551292e+01,6.475229918829867870e+01
1.044012575021434763e+01,6.089939454882011205e+01
1.046013146613318057e+01,5.830799608690034574e+01
1.048013718205201528e+01,5.520907543685373753e+01
1.050014289797084821e+01,5.256085516617547171e+01
1.052014861388968292e+01,4.951408000531363029e+01
1.054015432980851585e+01,4.767127342368428344e+01
1.056016004572735056e+01,4.463636988964226049e+01
1.058016576164618527e+01,4.236113086778017589e+01
1.060017147756501821e+01,4.069672788242544925e+01
1.062017719348385292e+01,3.780263963909916924e+01
1.064018290940268585e+01,3.611273694993116123e+01
1.066018862532152056e+01,3.493757120822874640e+01
1.068019434124035527e+01,3.326505279332761233e+01
1.070020005715918820e+01,3.115395476101342709e+01
1.072020577307802292e+01,3.061640325981908006e+01
1.074021148899685585e+01,2.962216968069749612e+01
1.076021720491569056e+01,2.815421791567157683e+01
1.078022292083452349e+01,2.781001330918431336e+01
1.080022863675335820e+01,2.725889349580949528e+01
1.082023435267219291e+01,2.695472419396051578e+01
1.084024006859102585e+01,2.599311946700644071e+01
1.086024578450986056e+01,2.624928390294557445e+01
1.088025150042869349e+01,2.716335151496161870e+01
1.090025721634752820e+01,2.627187581543247319e+01
1.092026293226636113e+01,2.702285488157391669e+01
1.094026864818519584e+01,2.644635367176735841e+01
1.096027436410403055e+01,2.779873674966699326e+01
1.098028008002286349e+01,2.839245519993848887e+01
1.100028579594169820e+01,2.768778826888139477e+01
1.102029151186053113e+01,2.866337689658914911e+01
1.104029722777936584e+01,2.914043673387034517e+01
1.106030294369819877e+01,2.879193910307849791e+01
1.108030865961703348e+01,2.990856352664492945e+01
1.110031437553586819e+01,3.041685000770345937e+01
1.112032009145470113e+01,3.036531378742751386e+01
1.114032580737353584e+01,3.095765027442092077e+01
1.116033152329236877e+01,3.162172755820592229e+01
1.118033723921120348e+01,3.275143735856412519e+01
1.120034295513003642e+01,3.300141391592933360e+01
1.122034867104887113e+01,3.410852540868373239e+01
1.124035438696770584e+01,3.445338496185287624e+01
1.126036010288653877e+01,3.476476992186618276e+01
1.128036581880537348e+01,3.522570185439361978e+01
1.130037153472420641e+01,3.644378088062390475e+01
1.132037725064304112e+01,3.706257568214479647e+01
1.134038296656187583e+01,3.791411260642513525e+01
1.136038868248070877e+01,3.787312553444147056e+01
1.138039439839954348e+01,4.001520654718016345e+01
1.140040011431837641e+01,4.002008023978103779e+01
1.142040583023721112e+01,4.019574317422868859e+01
1.144041154615604405e+01,4.152971083774487226e+01
1.146041726207487876e+01,4.236099214034048543e+01
1.148042297799371170e+01,4.321081195350913617e+01
1.150042869391254641e+01,4.406446834862076400e+01
1.152043440983138112e+01,4.484676095302913268e+01
1.154044012575021405e+01,4.586217721593270369e+01
1.156044584166904876e+01,4.586990886346490015e+01
1.158045155758788169e+01,4.755574537627271070e+01
1.160045727350671640e+01,4.793949806512404166e+01
1.162046298942555111e+01,4.856361235427510081e+01
1.164046870534438405e+01,5.020821259378375601e+01
1.166047442126321876e+01,5.032609280308197697e+01
1.168048013718205169e+01,5.125308878989051209e+01
1.170048585310088640e+01,5.118964078187901379e+01
1.172049156901971934e+01,5.131487842339109307e+01
1.174049728493855405e+01,5.310581607598289366e+01
1.176050300085738698e+01,5.272180634731118687e+01
1.178050871677622169e+01,5.274103641240593987e+01
1.180051443269505640e+01,5.338918603351520176e+01
1.182052014861388933e+01,5.330032018581823650e+01
1.184052586453272404e+01,5.306110234991204777e+01
1.186053158045155698e+01,5.197091961141352101e+01
1.188053729637039169e+01,5.108531719158420970e+01
1.190054301228922640e+01,5.090236507008143008e+01
1.192054872820805933e+01,4.917380754674461230e+01
1.194055444412689404e+01,4.863598407721583783e+01
1.196056016004572697e+01,4.714645934224678570e+01
1.198056587596456168e+01,4.519816294325703865e+01
1.200057159188339639e+01,4.386435817711287655e+01
1.202057730780222933e+01,4.092302015944309801e+01
1.204058302372106226e+01,3.813370019129182253e+01
1.206058873963989697e+01,3.606937455373692103e+01
1.208059445555873168e+01,3.262645611347944197e+01
1.210060017147756461e+01,3.049478651793882023e+01
1.212060588739639932e+01,2.787550699691271916e+01
1.214061160331523226e+01,2.557017939038421517e+01
1.216061731923406697e+01,2.202137110146961163e+01
1.218062303515290168e+01,1.916349723314004905e+01
1.220062875107173461e+01,1.721979243889332167e+01
1.222063446699056932e+01,1.490772839941876349e+01
1.224064018290940226e+01,1.322816432302485268e+01
1.226064589882823697e+01,1.218481159212487164e+01
1.228065161474707168e+01,1.008300655584198502e+01
1.230065733066590461e+01,8.334228451262763571e+00
1.232066304658473754e+01,8.795062179027429039e+00
1.234066876250357225e+01,7.301032172762020878e+00
1.236067447842240696e+01,6.823119954358203287e+00
1.238068019434123990e+01,5.506104271340230838e+00
1.240068591026007461e+01,5.443051898642188746e+00
1.242069162617890754e+01,4.520359558462252458e+00
1.244069734209774225e+01,4.882232221534895444e+00
1.246070305801657696e+01,4.195251459294127017e+00
1.248070877393540989e+01,5.083835440334056877e+00
1.250071448985424460e+01,4.296495249454040710e+00
1.252072020577307754e+01,4.337833087096433005e+00
1.254072592169191225e+01,3.040312856934652697e+00
1.256073163761074696e+01,3.504334303307195420e+00
1.258073735352957989e+01,3.721416153899699264e+00
1.260074306944841460e+01,4.251323484481285497e+00
1.262074878536724754e+01,4.005081840292787021e+00
1.264075450128608225e+01,3.460467608006269735e+00
1.266076021720491518e+01,2.834290508248826335e+00
1.268076593312374989e+01,4.092100899254942803e+00
1.270077164904258282e+01,3.212767841756296150e+00
1.272077736496141753e+01,3.716395487782586660e+00
1.274078308088025224e+01,3.648222286909902579e+00
1.276078879679908518e+01,2.973561862865788719e+00
1.278079451271791989e+01,3.134160898551013652e+00
1.280080022863675282e+01,3.678220764229396700e+00
1.282080594455558753e+01,2.966400183819224878e+00
1.284081166047442224e+01,3.275391041825222782e+00
1.286081737639325517e+01,2.861236376627068978e+00
1.288082309231208988e+01,3.830860594069342540e+00
1.290082880823092282e+01,2.920249588919252570e+00
1.292083452414975753e+01,2.981854172709914153e+00
1.294084024006859224e+01,2.577402719455665903e+00
1.296084595598742517e+01,2.831956305264190732e+00
1.298085167190625810e+01,3.098460555674052319e+00
1.300085738782509281e+01,3.470735400675917681e+00
1.302086310374392752e+01,2.683561394141231737e+00
1.304086881966276046e+01,3.481989174588569824e+00
1.306087453558159517e+01,2.929354954278799106e+00
1.308088025150042810e+01,3.172695438141139412e+00
1.310088596741926281e+01,2.961904184832689246e+00
1.312089168333809752e+01,2.607415677988257130e+00
1.314089739925693046e+01,2.596199742623028328e+00
1.316090311517576517e+01,2.881513855456927953e+00
1.318090883109459810e+01,2.931948154965678732e+00
1.320091454701343281e+01,3.457698644946440858e+00
1.322092026293226752e+01,2.141813477159271173e+00
1.324092597885110045e+01,1.928460865239469912e+00
1.326093169476993339e+01,2.714087806570064210e+00
1.328093741068876810e+01,2.806196518624884728e+00
1.330094312660760281e+01,3.538601396079346983e+00
1.332094884252643574e+01,3.012471310148292503e+00
1.334095455844527045e+01,3.498400850934694439e+00
1.336096027436410338e+01,3.188588589610205748e+00
1.338096599028293809e+01,2.579129688646688123e+00
1.340097170620177280e+01,2.719552445069076896e+00
1.342097742212060574e+01,2.292883660775452803e+00
1.344098313803944045e+01,2.306827847560201317e+00
1.346098885395827338e+01,3.183191077371904321e+00
1.348099456987710809e+01,2.642364511910689551e+00
1.350100028579594280e+01,1.838232164255964474e+00
1.352100600171477573e+01,2.339937190528436961e+00
1.354101171763361044e+01,2.837784930413559614e+00
1.356101743355244338e+01,2.019978117059093137e+00
1.358102314947127809e+01,2.497962547375097042e+00
1.360102886539011102e+01,2.670820771075696154e+00
1.362103458130894573e+01,2.349929305209643715e+00
1.364104029722777867e+01,2.007434768332371000e+00
1.366104601314661338e+01,2.940800535227857893e+00
1.368105172906544809e+01,3.071152686725764802e+00
1.370105744498428102e+01,2.828040752520371015e+00
1.372106316090311573e+01,2.616218652652166909e+00
1.374106887682194866e+01,2.906701913223695755e+00
1.376107459274078337e+01,2.604647205716307923e+00
1.378108030865961808e+01,3.198620586132980392e+00
1.380108602457845102e+01,2.687862461585325047e+00
1.382109174049728573e+01,2.861573471307601313e+00
1.384109745641611866e+01,2.790285882969882891e+00
1.386110317233495337e+01,2.161563992260818079e+00
1.388110888825378808e+01,2.418412089780980878e+00
1.390111460417262101e+01,3.155803136198246150e+00
1.392112032009145395e+01,2.827543174923119906e+00
1.394112603601028866e+01,2.309925937668495965e+00
1.396113175192912337e+01,3.321560520227349933e+00
1.398113746784795630e+01,2.657146844887754433e+00
1.400114318376679101e+01,2.007481010791448028e+00
1.402114889968562395e+01,3.336202386916422125e+00
1.404115461560445866e+01,3.639584959556667165e+00
1.406116033152329337e+01,2.810924821771980220e+00
1.408116604744212630e+01,2.544618658036585046e+00
1.410117176336095923e+01,2.523571413260410345e+00
1.412117747927979394e+01,2.171865824050776439e+00
1.414118319519862865e+01,2.395227169475591555e+00
1.416118891111746336e+01,2.439242494252191307e+00
1.418119462703629630e+01,2.698238576030492553e+00
1.420120034295512923e+01,3.404499887999679508e+00
1.422120605887396394e+01,2.759419557568692838e+00
1.424121177479279865e+01,2.397429648045190209e+00
1.426121749071163336e+01,3.038813876945400061e+00
1.428122320663046629e+01,3.480240138103977365e+00
1.430122892254929923e+01,3.053134939867230280e+00
1.432123463846813394e+01,2.883951413063522651e+00
1.434124035438696865e+01,2.225942281013172597e+00
1.436124607030580158e+01,2.939801997515822052e+00
1.438125178622463629e+01,2.709374369505445745e+00
1.440125750214346922e+01,3.171908495350701962e+00
1.442126321806230393e+01,3.022409534707692913e+00
1.444126893398113864e+01,3.316821275110153344e+00
1.446127464989997158e+01,3.025856699920668191e+00
1.448128036581880451e+01,2.783039785023611934e+00
1.450128608173763922e+01,2.726593912460182345e+00
1.452129179765647393e+01,2.633750047028316832e+00
1.454129751357530864e+01,2.123723427212929948e+00
1.456130322949414158e+01,2.902199669084011724e+00
1.458130894541297451e+01,3.271021790527807838e+00
1.460131466133180922e+01,2.797161056162705606e+00
1.462132037725064393e+01,3.506051301598188896e+00
1.464132609316947686e+01,3.610522082465126292e+00
1.466133180908831157e+01,2.766130745047188366e+00
1.468133752500714451e+01,2.809724431769348385e+00
1.470134324092597922e+01,3.447071040933528785e+00
1.472134895684481393e+01,3.819211821696217868e+00
1.474135467276364686e+01,2.840649012140844754e+00
1.476136038868247979e+01,2.836131696742977049e+00
1.478136610460131450e+01,2.761537668108019705e+00
1.480137182052014921e+01,3.258637642632925768e+00
1.482137753643898392e+01,3.087244940863483222e+00
1.484138325235781686e+01,2.838252484611913040e+00
1.486138896827664979e+01,3.122089902592229294e+00
1.488139468419548450e+01,3.811371968617667250e+00
1.490140040011431921e+01,3.606372449911227740e+00
1.492140611603315392e+01,4.141697830348583409e+00
1.494141183195198685e+01,3.608620169693654844e+00
1.496141754787081979e+01,3.498253544366015433e+00
1.498142326378965450e+01,3.408352974313994643e+00
1.500142897970848921e+01,4.041764694198462848e+00
1.502143469562732214e+01,3.544152927816100362e+00
1.504144041154615508e+01,3.807310654898260260e+00
1.506144612746498979e+01,3.485449016854190063e+00
1.508145184338382450e+01,4.585666390340754184e+00
1.510145755930265921e+01,4.173846374341216858e+00
1.512146327522149214e+01,4.374065960168813660e+00
1.514146899114032507e+01,4.140268862832115815e+00
1.516147470705915978e+01,5.118082444919139107e+00
1.518148042297799449e+01,4.411922234027117362e+00
1.520148613889682920e+01,4.994643576309254485e+00
1.522149185481566214e+01,4.615301541986523759e+00
1.524149757073449507e+01,4.682398584814713161e+00
1.526150328665332978e+01,4.936060794432421517e+00
1.528150900257216449e+01,5.732237810052064120e+00
1.530151471849099742e+01,5.542207671957505966e+00
1.532152043440983036e+01,5.671700586799923727e+00
1.534152615032866507e+01,5.438105265008672973e+00
1.536153186624749978e+01,6.627813793869584913e+00
1.538153758216633449e+01,5.874037857279764907e+00
1.540154329808516742e+01,5.743695654716596266e+00
1.542154901400400036e+01,6.673213678449779529e+00
1.544155472992283507e+01,7.125139147716096133e+00
1.546156044584166978e+01,6.984194380259639345e+00
1.548156616176050449e+01,6.775143045695177335e+00
1.550157187767933742e+01,7.468928647405810750e+00
1.552157759359817035e+01,7.965483665322159013e+00
1.554158330951700506e+01,7.875754249571415677e+00
1.556158902543583977e+01,8.452500675882559378e+00
1.558159474135467271e+01,8.989559615472746401e+00
1.560160045727350742e+01,8.422726024983994364e+00
1.562160617319234035e+01,8.764642265920928210e+00
1.564161188911117506e+01,9.873460849631346292e+00
1.566161760503000977e+01,9.278445751461630309e+00
1.568162332094884270e+01,1.087988159550206646e+01
1.570162903686767564e+01,1.053095757693161971e+01
1.572163475278651035e+01,1.065202705739954681e+01
1.574164046870534506e+01,1.157855090093553585e+01
1.576164618462417977e+01,1.147985371607794036e+01
1.578165190054301270e+01,1.218391502133110293e+01
1.580165761646184563e+01,1.244980208275514144e+01
1.582166333238068034e+01,1.275617700765180018e+01
1.584166904829951505e+01,1.314501146037607349e+01
1.586167476421834799e+01,1.351658986284618891e+01
1.588168048013718270e+01,1.428751233459561298e+01
1.590168619605601563e+01,1.545122890324161347e+01
1.592169191197485034e+01,1.562644599356744379e+01
1.594169762789368505e+01,1.569282851869025031e+01
1.596170334381251799e+01,1.713514256407772152e+01
1.598170905973135092e+01,1.749771049571140225e+01
1.600171477565018563e+01,1.784044044894807257e+01
1.602172049156902034e+01,1.764994976885702727e+01
1.604172620748785505e+01,1.926597458598281776e+01
1.606173192340668976e+01,1.903398082082004450e+01
1.608173763932552092e+01,1.996750637281662222e+01
1.610174335524435563e+01,2.068273821450565819e+01
1.612174907116319034e+01,2.194551230298770150e+01
1.614175478708202505e+01,2.219315981503743984e+01
1.616176050300085620e+01,2.258143684231310999e+01
1.618176621891969091e+01,2.369042148791528035e+01
1.620177193483852562e+01,2.373019871645013623e+01
1.622177765075736033e+01,2.459434230837583613e+01
1.624178336667619504e+01,2.595250835361660080e+01
1.626178908259502620e+01,2.601910264609099244e+01
1.628179479851386091e+01,2.758280454015679339e+01
1.630180051443269562e+01,2.886911104258638261e+01
1.632180623035153033e+01,2.860398815013420659e+01
1.634181194627036149e+01,2.954946972003494921e+01
1.636181766218919620e+01,3.078491830958512310e+01
1.638182337810803091e+01,3.249718978414282589e+01
1.640182909402686562e+01,3.290500444990309603e+01
1.642183480994570033e+01,3.457890953198750594e+01
1.644184052586453504e+01,3.439554934085340676e+01
1.646184624178336620e+01,3.649530693538446258e+01
1.648185195770220091e+01,3.667117508997394282e+01
1.650185767362103562e+01,3.870124672957966538e+01
1.652186338953986677e+01,3.938673256418455537e+01
1.654186910545870148e+01,4.018701406195083337e+01
1.656187482137753619e+01,4.176512950191617080e+01
1.658188053729637090e+01,4.294959949359883922e+01
1.660188625321520561e+01,4.430481411298996619e+01
1.662189196913404032e+01,4.455831538009882564e+01
1.664189768505287148e+01,4.609066452627034494e+01
1.666190340097170619e+01,4.699742718996355961e+01
1.668190911689054090e+01,4.749357302397906722e+01
1.670191483280937561e+01,4.852471765825966088e+01
1.672192054872820677e+01,4.881330010043584622e+01
1.674192626464704148e+01,4.932200177014927078e+01
1.676193198056587619e+01,5.067165020688291577e+01
1.678193769648471090e+01,5.049568070062154845e+01
1.680194341240354561e+01,5.043313871066234810e+01
1.682194912832238032e+01,5.080464496654613527e+01
1.684195484424121148e+01,5.004042781042133470e+01
1.686196056016004619e+01,4.998786141314018039e+01
1.688196627607888090e+01,4.928607271436321469e+01
1.690197199199771205e+01,4.913792003995740032e+01
1.692197770791654676e+01,4.781088188979087050e+01
1.694198342383538147e+01,4.613768754152918916e+01
1.696198913975421618e+01,4.495475152368825178e+01
1.698199485567305089e+01,4.355234776453373513e+01
1.700200057159188560e+01,4.217397466744551338e+01
1.702200628751071676e+01,4.014822834673132945e+01
1.704201200342955147e+01,3.843594228264771573e+01
1.706201771934838618e+01,3.668157180063872858e+01
1.708202343526722089e+01,3.433323002892677778e+01
1.710202915118605205e+01,3.306682110148982900e+01
1.712203486710488676e+01,3.092048059987240549e+01
1.714204058302372147e+01,2.908219799324029964e+01
1.716204629894255618e+01,2.788637155349244878e+01
1.718205201486139089e+01,2.606982023799696435e+01
1.720205773078022204e+01,2.535408560519552879e+01
1.722206344669905675e+01,2.424455396263503815e+01
1.724206916261789146e+01,2.285849676858246937e+01
1.726207487853672617e+01,2.160245776629096426e+01
1.728208059445555733e+01,2.115733574516950100e+01
1.730208631037439204e+01,1.977467698421230935e+01
1.732209202629322675e+01,1.892707829040887901e+01
1.734209774221206146e+01,1.887412747219746478e+01
1.736210345813089617e+01,1.744241993167867122e+01
1.738210917404973088e+01,1.685466081668533178e+01
1.740211488996856204e+01,1.641434514815022538e+01
1.742212060588739675e+01,1.458145540811811358e+01
1.744212632180623146e+01,1.451868212990191509e+01
1.746213203772506262e+01,1.365664323690565851e+01
1.748213775364389733e+01,1.248941065811297513e+01
1.750214346956273204e+01,1.109684731653111989e+01
1.752214918548156675e+01,1.041389261594205884e+01
1.754215490140040146e+01,9.700020538967351058e+00
1.756216061731923617e+01,9.691973431435767949e+00
1.758216633323806732e+01,8.240152137634414231e+00
1.760217204915690203e+01,8.075211989707156590e+00
1.762217776507573674e+01,7.458154534704767080e+00
1.764218348099457145e+01,7.203531014709954050e+00
1.766218919691340261e+01,6.128541605093637656e+00
1.768219491283223732e+01,6.522095536367296553e+00
1.770220062875107203e+01,6.291390119241031975e+00
1.772220634466990674e+01,5.678985591563128210e+00
1.774221206058874145e+01,5.340968913559320796e+00
1.776221777650757616e+01,5.411341377044604606e+00
1.778222349242640732e+01,5.898866353633550830e+00
1.780222920834524203e+01,4.487929725738009523e+00
1.782223492426407674e+01,4.641031187002623959e+00
1.784224064018290790e+01,5.186936516936755837e+00
1.786224635610174261e+01,5.161865758730298737e+00
1.788225207202057732e+01,4.954499362643645100e+00
1.790225778793941203e+01,5.327010609491745541e+00
1.792226350385824674e+01,4.927772790874397124e+00
1.794226921977708145e+01,4.866907139481608802e+00
1.796227493569591260e+01,4.184823710222349114e+00
