angle,intensity
1.000000000000000000e+01,7.342250171393814639e+01
1.002000571591883471e+01,7.314533749530370699e+01
1.004001143183766764e+01,7.360133100147839968e+01
1.006001714775650235e+01,7.335298599029620448e+01
1.008002286367533529e+01,7.458309345821504621e+01
1.010002857959417000e+01,7.436793738950106558e+01
1.012003429551300293e+01,7.414508352769954058e+01
1.014004001143183764e+01,7.357382471389411194e+01
1.016004572735067235e+01,7.315795128297000360e+01
1.018005144326950528e+01,7.238553835483652676e+01
1.020005715918833999e+01,7.207549045079457528e+01
1.022006287510717293e+01,7.040976116501478543e+01
1.024006859102600764e+01,6.954751914697865800e+01
1.026007430694484057e+01,6.781408413851903560e+01
1.028008002286367528e+01,6.507779591600780122e+01
1.030008573878250999e+01,6.335125136914798816e+01
1.032009145470134293e+01,6.147564094842948634e+01
1.034009717062017764e+01,5.723862205132013514e+01
1.036010288653901057e+01,5.456294248287348125e+01
1.038010860245784528e+01,5.149623762264717186e+01
1.040011431837667999e+01,4.717278073770606284e+01
1.042012003429551292e+01,4.305829130410361927e+01
1.044012575021434763e+01,4.018192280039341568e+01
1.046013146613318057e+01,3.711843461881683481e+01
1.048013718205201528e+01,3.266312042613627398e+01
1.050014289797084821e+01,2.977691470555396336e+01
1.052014861388968292e+01,2.702005385072410348e+01
1.054015432980851585e+01,2.319948088644306239e+01
1.056016004572735056e+01,2.120820328942270550e+01
1.058016576164618527e+01,1.921010619914475370e+01
1.060017147756501821e+01,1.684890933484435394e+01
1.062017719348385292e+01,1.480087825785472511e+01
1.064018290940268585e+01,1.314750986252376563e+01
1.066018862532152056e+01,1.169147867518428896e+01
1.068019434124035527e+01,1.102799809491928862e+01
1.070020005715918820e+01,1.029145432300524732e+01
1.072020577307802292e+01,9.309406924979992226e+00
1.074021148899685585e+01,7.801958278409751202e+00
1.076021720491569056e+01,8.527644663794145430e+00
1.078022292083452349e+01,7.830669283570992789e+00
1.080022863675335820e+01,6.864505247974399538e+00
1.082023435267219291e+01,7.529446885967132630e+00
1.084024006859102585e+01,6.862377863646496934e+00
1.086024578450986056e+01,6.434260240411926901e+00
1.088025150042869349e+01,6.624225536867877295e+00
1.090025721634752820e+01,6.182098802747661992e+00
1.092026293226636113e+01,5.992091517581212834e+00
1.094026864818519584e+01,6.169837905658468458e+00
1.096027436410403055e+01,5.716401009697340996e+00
1.098028008002286349e+01,6.059837413340023460e+00
1.100028579594169820e+01,5.320315628770183380e+00
1.102029151186053113e+01,5.475854359240328151e+00
1.104029722777936584e+01,4.924402050783016627e+00
1.106030294369819877e+01,5.810443945305912017e+00
1.108030865961703348e+01,5.105689161876838966e+00
1.110031437553586819e+01,4.508551263376459062e+00
1.112032009145470113e+01,5.246070239282657255e+00
1.114032580737353584e+01,5.038991279118617328e+00
1.116033152329236877e+01,5.174591690449645398e+00
1.118033723921120348e+01,5.056542879308201677e+00
1.120034295513003642e+01,5.069347359636434902e+00
1.122034867104887113e+01,4.934898260202749576e+00
1.124035438696770584e+01,4.704878726825997504e+00
1.126036010288653877e+01,3.980623845396645155e+00
1.128036581880537348e+01,5.000823986755220218e+00
1.130037153472420641e+01,5.087739441074084823e+00
1.132037725064304112e+01,4.799075869866352484e+00
1.134038296656187583e+01,4.397184331296283943e+00
1.136038868248070877e+01,5.120309591485321832e+00
1.138039439839954348e+01,4.114496661325849125e+00
1.140040011431837641e+01,5.202914568091888903e+00
1.142040583023721112e+01,4.209969542917644247e+00
1.144041154615604405e+01,4.559679394620268944e+00
1.146041726207487876e+01,3.770059323477595203e+00
1.148042297799371170e+01,4.252933406977299491e+00
1.150042869391254641e+01,4.782479890296768232e+00
1.152043440983138112e+01,4.555879927823505149e+00
1.154044012575021405e+01,4.622765112047089175e+00
1.156044584166904876e+01,4.571005500404197619e+00
1.158045155758788169e+01,4.435569422172210174e+00
1.160045727350671640e+01,4.431843197453684269e+00
1.162046298942555111e+01,4.852646623580635143e+00
1.164046870534438405e+01,5.001689866775570259e+00
1.166047442126321876e+01,3.522384411547244465e+00
1.168048013718205169e+01,4.152719702461160622e+00
1.170048585310088640e+01,3.650610022896385587e+00
1.172049156901971934e+01,4.801404841761793385e+00
1.174049728493855405e+01,4.023969726274307490e+00
1.176050300085738698e+01,4.194589335596345059e+00
1.178050871677622169e+01,4.350195954604815896e+00
1.180051443269505640e+01,4.375791001071026365e+00
1.182052014861388933e+01,4.065555184539230815e+00
1.184052586453272404e+01,3.891336075633409664e+00
1.186053158045155698e+01,3.765770139057130983e+00
1.188053729637039169e+01,4.686485360074780004e+00
1.190054301228922640e+01,4.537943008059708738e+00
1.192054872820805933e+01,4.230878021206609496e+00
1.194055444412689404e+01,4.686739808834761156e+00
1.196056016004572697e+01,4.249750149691061907e+00
1.198056587596456168e+01,4.301532980665866646e+00
1.200057159188339639e+01,4.381009337578120721e+00
1.202057730780222933e+01,4.302287617894466898e+00
1.204058302372106226e+01,4.751541241364595436e+00
1.206058873963989697e+01,3.976332653656736937e+00
1.208059445555873168e+01,4.401951972242807543e+00
1.210060017147756461e+01,4.729868689936056469e+00
1.212060588739639932e+01,5.010279520427051381e+00
1.214061160331523226e+01,4.858419125268850891e+00
1.216061731923406697e+01,4.308967419286439338e+00
1.218062303515290168e+01,4.846052580110691288e+00
1.220062875107173461e+01,4.094061091035587907e+00
1.222063446699056932e+01,4.642290850700831584e+00
1.224064018290940226e+01,4.441856782020542127e+00
1.226064589882823697e+01,5.035817835647983465e+00
1.228065161474707168e+01,5.210426818820254269e+00
1.230065733066590461e+01,5.210326144831171291e+00
1.232066304658473754e+01,4.891435261683124480e+00
1.234066876250357225e+01,4.807875739057081432e+00
1.236067447842240696e+01,5.111259219578430546e+00
1.238068019434123990e+01,5.071424846963378030e+00
1.240068591026007461e+01,5.914002779743952942e+00
1.242069162617890754e+01,5.754435979093539544e+00
1.244069734209774225e+01,5.228290894095167118e+00
1.246070305801657696e+01,6.192997891305481062e+00
1.248070877393540989e+01,5.699242407030686408e+00
1.250071448985424460e+01,5.650056962052777187e+00
1.252072020577307754e+01,5.667265711401865858e+00
1.254072592169191225e+01,6.609605700022353147e+00
1.256073163761074696e+01,6.322755127189291002e+00
1.258073735352957989e+01,6.433064936020005398e+00
1.260074306944841460e+01,7.017590918612036432e+00
1.262074878536724754e+01,6.633259778824772468e+00
1.264075450128608225e+01,7.098327900658713219e+00
1.266076021720491518e+01,6.866276810376364281e+00
1.268076593312374989e+01,7.716061274331829978e+00
1.270077164904258282e+01,7.661552441349773090e+00
1.272077736496141753e+01,7.836317320336060988e+00
1.274078308088025224e+01,7.294553325708642788e+00
1.276078879679908518e+01,8.339875770960787804e+00
1.278079451271791989e+01,8.835713010782875187e+00
1.280080022863675282e+01,8.489553900754359006e+00
1.282080594455558753e+01,8.891049395111107145e+00
1.284081166047442224e+01,9.281714022549493848e+00
1.286081737639325517e+01,9.206032825475094938e+00
1.288082309231208988e+01,9.760328227371235954e+00
1.290082880823092282e+01,1.001204599497775583e+01
1.292083452414975753e+01,1.010179009531302974e+01
1.294084024006859224e+01,1.061782054190048186e+01
1.296084595598742517e+01,1.086460158120128838e+01
1.298085167190625810e+01,1.137649901682069498e+01
1.300085738782509281e+01,1.120115099956114513e+01
1.302086310374392752e+01,1.169724409868129200e+01
1.304086881966276046e+01,1.166072453925487906e+01
1.306087453558159517e+01,1.216041102761062831e+01
1.308088025150042810e+01,1.279008259116469404e+01
1.310088596741926281e+01,1.311406972876411103e+01
1.312089168333809752e+01,1.363708121047544708e+01
1.314089739925693046e+01,1.435825466371110259e+01
1.316090311517576517e+01,1.453180356281922769e+01
1.318090883109459810e+01,1.448738650526474459e+01
1.320091454701343281e+01,1.488251632936313840e+01
1.322092026293226752e+01,1.474192871871241906e+01
1.324092597885110045e+01,1.532829755779661340e+01
1.326093169476993339e+01,1.627089578850371510e+01
1.328093741068876810e+01,1.665584887748753928e+01
1.330094312660760281e+01,1.723725633085786058e+01
1.332094884252643574e+01,1.763549169933159533e+01
1.334095455844527045e+01,1.821924996288867860e+01
1.336096027436410338e+01,1.923638637636268811e+01
1.338096599028293809e+01,1.928101050527539684e+01
1.340097170620177280e+01,1.955434544746207237e+01
1.342097742212060574e+01,2.017801648892171684e+01
1.344098313803944045e+01,2.102774093380505605e+01
1.346098885395827338e+01,2.128289302389963211e+01
1.348099456987710809e+01,2.196271487572240844e+01
1.350100028579594280e+01,2.225050632179900845e+01
1.352100600171477573e+01,2.362213739090412901e+01
1.354101171763361044e+01,2.398423717855237669e+01
1.356101743355244338e+01,2.382551115236179129e+01
1.358102314947127809e+01,2.477944987119019871e+01
1.360102886539011102e+01,2.623818811545148222e+01
1.362103458130894573e+01,2.703071044658186395e+01
1.364104029722777867e+01,2.730557908030444381e+01
1.366104601314661338e+01,2.823742022614292324e+01
1.368105172906544809e+01,2.873154786212399614e+01
1.370105744498428102e+01,2.963082044628921707e+01
1.372106316090311573e+01,3.035828050346287910e+01
1.374106887682194866e+01,3.100269338475166592e+01
1.376107459274078337e+01,3.115172265429172427e+01
1.378108030865961808e+01,3.284750488809572033e+01
1.380108602457845102e+01,3.310726634908359500e+01
1.382109174049728573e+01,3.396246945451985511e+01
1.384109745641611866e+01,3.518824784258688965e+01
1.386110317233495337e+01,3.672247459424307436e+01
1.388110888825378808e+01,3.716355927495709466e+01
1.390111460417262101e+01,3.815153816779009333e+01
1.392112032009145395e+01,3.954917904491229308e+01
1.394112603601028866e+01,3.993328080890380960e+01
1.396113175192912337e+01,4.165731091460001778e+01
1.398113746784795630e+01,4.172957155447480204e+01
1.400114318376679101e+01,4.294918825238957538e+01
1.402114889968562395e+01,4.434651853264735166e+01
1.404115461560445866e+01,4.556560808527582651e+01
1.406116033152329337e+01,4.702695793850270434e+01
1.408116604744212630e+01,4.810012465767316314e+01
1.410117176336095923e+01,4.986371352761520370e+01
1.412117747927979394e+01,5.044128497113383958e+01
1.414118319519862865e+01,5.178784533531023726e+01
1.416118891111746336e+01,5.271766000052737411e+01
1.418119462703629630e+01,5.424713037842472119e+01
1.420120034295512923e+01,5.625853822729143872e+01
1.422120605887396394e+01,5.732704474457972310e+01
1.424121177479279865e+01,5.843365533373354026e+01
1.426121749071163336e+01,5.970402705953929257e+01
1.428122320663046629e+01,6.153808123076856873e+01
1.430122892254929923e+01,6.163943412248446663e+01
1.432123463846813394e+01,6.289870849434009870e+01
1.434124035438696865e+01,6.488276537371120867e+01
1.436124607030580158e+01,6.578450864164720713e+01
1.438125178622463629e+01,6.708042562530810926e+01
1.440125750214346922e+01,6.753169633647696912e+01
1.442126321806230393e+01,6.863493464227747154e+01
1.444126893398113864e+01,7.035572964496520854e+01
1.446127464989997158e+01,7.072857742678336024e+01
1.448128036581880451e+01,7.101094988306651601e+01
1.450128608173763922e+01,7.079891749233755149e+01
1.452129179765647393e+01,7.014326724835018467e+01
1.454129751357530864e+01,6.913947328110438661e+01
1.456130322949414158e+01,6.840346945172112214e+01
1.458130894541297451e+01,6.753815877388997535e+01
1.460131466133180922e+01,6.593029626369042262e+01
1.462132037725064393e+01,6.350857407780647179e+01
1.464132609316947686e+01,6.111961597506855526e+01
1.466133180908831157e+01,5.860939507313374008e+01
1.468133752500714451e+01,5.528858684367057919e+01
1.470134324092597922e+01,5.229248767721291813e+01
1.472134895684481393e+01,4.857462460956359962e+01
1.474135467276364686e+01,4.457837944124230489e+01
1.476136038868247979e+01,4.043580792243078292e+01
1.478136610460131450e+01,3.673702189223891423e+01
1.480137182052014921e+01,3.302253136219815843e+01
1.482137753643898392e+01,2.967483938465875681e+01
1.484138325235781686e+01,2.594683257132124510e+01
1.486138896827664979e+01,2.327288917028725024e+01
1.488139468419548450e+01,2.081763365145619460e+01
1.490140040011431921e+01,1.812043272482898715e+01
1.492140611603315392e+01,1.693111757322487421e+01
1.494141183195198685e+01,1.552804168441072008e+01
1.496141754787081979e+01,1.389391926982659164e+01
1.498142326378965450e+01,1.254713036628241696e+01
1.500142897970848921e+01,1.178136780684928908e+01
1.502143469562732214e+01,9.941485351291239780e+00
1.504144041154615508e+01,9.369756715773217337e+00
1.506144612746498979e+01,8.800261893659437007e+00
1.508145184338382450e+01,8.015772812679282211e+00
1.510145755930265921e+01,8.950527562467854636e+00
1.512146327522149214e+01,7.725485061046727608e+00
1.514146899114032507e+01,7.896789241753468858e+00
1.516147470705915978e+01,7.811198168412477827e+00
1.518148042297799449e+01,7.337389322522391844e+00
1.520148613889682920e+01,7.225105560730840537e+00
1.522149185481566214e+01,7.983354224842301505e+00
1.524149757073449507e+01,7.662546765835628548e+00
1.526150328665332978e+01,7.259920805026766288e+00
1.528150900257216449e+01,8.188229230853810492e+00
1.530151471849099742e+01,7.407703471867160161e+00
1.532152043440983036e+01,7.046302863508857151e+00
1.534152615032866507e+01,7.736162865810683797e+00
1.536153186624749978e+01,8.327476473197249263e+00
1.538153758216633449e+01,7.866095338569081719e+00
1.540154329808516742e+01,8.547893747088377125e+00
1.542154901400400036e+01,8.898268848061096747e+00
1.544155472992283507e+01,9.095603974533810643e+00
1.546156044584166978e+01,8.958562997728552801e+00
1.548156616176050449e+01,8.524273876061229771e+00
1.550157187767933742e+01,9.118674367444210560e+00
1.552157759359817035e+01,9.683737327838210618e+00
1.554158330951700506e+01,9.274525263685433174e+00
1.556158902543583977e+01,1.050400260972168809e+01
1.558159474135467271e+01,9.752711075095504611e+00
1.560160045727350742e+01,9.933314917433113678e+00
1.562160617319234035e+01,1.018097504633281858e+01
1.564161188911117506e+01,1.139355082888165782e+01
1.566161760503000977e+01,1.097358406258106456e+01
1.568162332094884270e+01,1.222076352445032654e+01
1.570162903686767564e+01,1.201956140677946827e+01
1.572163475278651035e+01,1.231469392359685244e+01
1.574164046870534506e+01,1.320300353747222744e+01
1.576164618462417977e+01,1.365387752989823511e+01
1.578165190054301270e+01,1.325361455496527974e+01
1.580165761646184563e+01,1.441557583658885022e+01
1.582166333238068034e+01,1.501348121182584983e+01
1.584166904829951505e+01,1.477332561812085210e+01
1.586167476421834799e+01,1.623607113848824213e+01
1.588168048013718270e+01,1.667139666552465016e+01
1.590168619605601563e+01,1.771419368414741768e+01
1.592169191197485034e+01,1.780193428897955243e+01
1.594169762789368505e+01,1.888405343874893560e+01
1.596170334381251799e+01,1.879946564459082481e+01
1.598170905973135092e+01,1.936546842220815989e+01
1.600171477565018563e+01,2.049934498817579254e+01
1.602172049156902034e+01,2.106586537900778922e+01
1.604172620748785505e+01,2.162521159906012258e+01
1.606173192340668976e+01,2.265206932858366784e+01
1.608173763932552092e+01,2.390293249832443934e+01
1.610174335524435563e+01,2.439453191862787307e+01
1.612174907116319034e+01,2.429601014712936902e+01
1.614175478708202505e+01,2.560913006290953575e+01
1.616176050300085620e+01,2.664141477439308758e+01
1.618176621891969091e+01,2.797800986039517923e+01
1.620177193483852562e+01,2.900521473187377808e+01
1.622177765075736033e+01,3.018840398998201380e+01
1.624178336667619504e+01,3.171763682351540581e+01
1.626178908259502620e+01,3.234432905903799593e+01
1.628179479851386091e+01,3.331217222642099784e+01
1.630180051443269562e+01,3.480263943737055854e+01
1.632180623035153033e+01,3.653847109045082675e+01
1.634181194627036149e+01,3.785194195232158165e+01
1.636181766218919620e+01,3.774479862406668929e+01
1.638182337810803091e+01,3.964539613093559467e+01
1.640182909402686562e+01,4.119350666587961030e+01
1.642183480994570033e+01,4.280780156478743947e+01
1.644184052586453504e+01,4.361320467439387016e+01
1.646184624178336620e+01,4.497272717633355654e+01
1.648185195770220091e+01,4.670690030975517004e+01
1.650185767362103562e+01,4.850480538951141085e+01
1.652186338953986677e+01,5.015255660361992796e+01
1.654186910545870148e+01,5.208929586604062223e+01
1.656187482137753619e+01,5.356693670222927040e+01
1.658188053729637090e+01,5.559939603305684130e+01
1.660188625321520561e+01,5.706412715773734590e+01
1.662189196913404032e+01,5.981588730715969859e+01
1.664189768505287148e+01,6.139968907133635412e+01
1.666190340097170619e+01,6.293568679410685718e+01
1.668190911689054090e+01,6.586968750193605615e+01
1.670191483280937561e+01,6.811162240256408040e+01
1.672192054872820677e+01,7.018822873957107333e+01
1.674192626464704148e+01,7.257431862888489604e+01
1.676193198056587619e+01,7.420150937250878087e+01
1.678193769648471090e+01,7.696886402659961846e+01
1.680194341240354561e+01,7.924420676885171133e+01
1.682194912832238032e+01,8.098130893905027960e+01
1.684195484424121148e+01,8.383443213915943204e+01
1.686196056016004619e+01,8.591865488512050320e+01
1.688196627607888090e+01,8.882532504607004853e+01
1.690197199199771205e+01,8.994386831604825261e+01
1.692197770791654676e+01,9.214932832724562672e+01
1.694198342383538147e+01,9.394018487713685772e+01
1.696198913975421618e+01,9.637573222014262342e+01
1.698199485567305089e+01,9.714010837695147416e+01
1.700200057159188560e+01,9.854962700045905422e+01
1.702200628751071676e+01,9.856140951029573216e+01
1.704201200342955147e+01,9.954512958414235868e+01
1.706201771934838618e+01,9.990590852488750784e+01
1.708202343526722089e+01,9.968181241144293381e+01
1.710202915118605205e+01,9.843342990549535898e+01
1.712203486710488676e+01,9.672976875974683253e+01
1.714204058302372147e+01,9.550328555719011092e+01
1.716204629894255618e+01,9.310112336730873039e+01
1.718205201486139089e+01,9.040541438890070935e+01
1.720205773078022204e+01,8.740889446990539113e+01
1.722206344669905675e+01,8.401563245779172462e+01
1.724206916261789146e+01,7.996158770983382169e+01
1.726207487853672617e+01,7.631216767277430790e+01
1.728208059445555733e+01,7.218014972426422560e+01
1.730208631037439204e+01,6.772923604727732538e+01
1.732209202629322675e+01,6.460018847062254110e+01
1.734209774221206146e+01,6.031637235823455967e+01
1.736210345813089617e+01,5.658385180590759234e+01
1.738210917404973088e+01,5.404788083117823305e+01
1.740211488996856204e+01,5.100634754691133566e+01
1.742212060588739675e+01,4.839994470847494767e+01
1.744212632180623146e+01,4.657771306627467567e+01
1.746213203772506262e+01,4.456724871220718853e+01
1.748213775364389733e+01,4.286565727014939853e+01
1.750214346956273204e+01,4.218129504095025339e+01
1.752214918548156675e+01,4.193115647747158903e+01
1.754215490140040146e+01,4.122865432783169126e+01
1.756216061731923617e+01,4.159355553687584006e+01
1.758216633323806732e+01,4.013265274374278846e+01
1.760217204915690203e+01,4.110587566506426072e+01
1.762217776507573674e+01,4.089244830535570685e+01
1.764218348099457145e+01,4.175367989721009820e+01
1.766218919691340261e+01,4.189633502240326379e+01
1.768219491283223732e+01,4.244538270189912055e+01
1.770220062875107203e+01,4.310465132718121595e+01
1.772220634466990674e+01,4.362968468427867919e+01
1.774221206058874145e+01,4.320215608844605981e+01
1.776221777650757616e+01,4.355988872134646073e+01
1.778222349242640732e+01,4.389432028937962116e+01
1.780222920834524203e+01,4.402612230617151567e+01
1.782223492426407674e+01,4.353090863248884546e+01
1.784224064018290790e+01,4.388893278508570006e+01
1.786224635610174261e+01,4.357022963177042385e+01
1.788225207202057732e+01,4.249256405878945486e+01
1.790225778793941203e+01,4.201868759490285754e+01
1.792226350385824674e+01,4.081493226233825311e+01
1.794226921977708145e+01,3.868306888822336020e+01
1.796227493569591260e+01,3.843540847910866631e+01
