angle,intensity
1.000000000000000000e+01,7.319209390614764743e+01
1.002000571591883471e+01,7.481132997820964192e+01
1.004001143183766764e+01,7.524146350370864411e+01
1.006001714775650235e+01,7.515600679209271107e+01
1.008002286367533529e+01,7.519742115711515851e+01
1.010002857959417000e+01,7.468265046355794823e+01
1.012003429551300293e+01,7.542376368544658760e+01
1.014004001143183764e+01,7.565131198458443862e+01
1.016004572735067235e+01,7.431600619149577369e+01
1.018005144326950528e+01,7.473546164347902732e+01
1.020005715918833999e+01,7.339581392828225148e+01
1.022006287510717293e+01,7.192250688158458161e+01
1.024006859102600764e+01,7.065085870437238214e+01
1.026007430694484057e+01,6.917252117819762702e+01
1.028008002286367528e+01,6.601689257314114911e+01
1.030008573878250999e+01,6.442217669542728231e+01
1.032009145470134293e+01,6.182083351021020690e+01
1.034009717062017764e+01,5.819620121121231904e+01
1.036010288653901057e+01,5.461993769999625670e+01
1.038010860245784528e+01,5.123162069502843252e+01
1.040011431837667999e+01,4.744870821306959385e+01
1.042012003429551292e+01,4.418260004580807276e+01
1.044012575021434763e+01,3.967369387436629324e+01
1.046013146613318057e+01,3.651979289892018699e+01
1.048013718205201528e+01,3.311212504597497741e+01
1.050014289797084821e+01,2.937057331419686079e+01
1.052014861388968292e+01,2.641438227022258189e+01
1.054015432980851585e+01,2.398346392505527547e+01
1.056016004572735056e+01,2.177330748226467705e+01
1.058016576164618527e+01,1.973756636057572678e+01
1.060017147756501821e+01,1.765038682628494371e+01
1.062017719348385292e+01,1.699158850256127096e+01
1.064018290940268585e+01,1.567187800105665119e+01
1.066018862532152056e+01,1.466589552873912616e+01
1.068019434124035527e+01,1.399934371751981388e+01
1.070020005715918820e+01,1.251941500400941720e+01
1.072020577307802292e+01,1.242102772471521455e+01
1.074021148899685585e+01,1.237124612569944482e+01
1.076021720491569056e+01,1.146903604605378213e+01
1.078022292083452349e+01,1.144631693230868486e+01
1.080022863675335820e+01,1.158917137483870619e+01
1.082023435267219291e+01,1.044023630583409812e+01
1.084024006859102585e+01,1.037808736846846891e+01
1.086024578450986056e+01,1.050972413413663276e+01
1.088025150042869349e+01,1.039982819832087380e+01
1.090025721634752820e+01,1.055439212015147632e+01
1.092026293226636113e+01,1.041477096845837380e+01
1.094026864818519584e+01,9.979477468917860250e+00
1.096027436410403055e+01,9.837602464822321480e+00
1.098028008002286349e+01,9.208362390322655244e+00
1.100028579594169820e+01,9.397115633555458203e+00
1.102029151186053113e+01,8.901863650397858763e+00
1.104029722777936584e+01,8.374332507535978465e+00
1.106030294369819877e+01,8.924075474006352593e+00
1.108030865961703348e+01,8.470945380395894730e+00
1.110031437553586819e+01,8.487115471446969650e+00
1.112032009145470113e+01,7.860673007446660421e+00
1.114032580737353584e+01,6.997137819764040145e+00
1.116033152329236877e+01,7.288953039784717092e+00
1.118033723921120348e+01,6.530470723491693441e+00
1.120034295513003642e+01,6.102347148282695422e+00
1.122034867104887113e+01,6.418279004567452262e+00
1.124035438696770584e+01,6.116980173955555600e+00
1.126036010288653877e+01,5.724417063021192575e+00
1.128036581880537348e+01,6.358734284462594033e+00
1.130037153472420641e+01,5.856360173948951697e+00
1.132037725064304112e+01,5.540111393052834288e+00
1.134038296656187583e+01,4.996436943941102271e+00
1.136038868248070877e+01,4.867808187727445279e+00
1.138039439839954348e+01,5.594405390443782267e+00
1.140040011431837641e+01,4.575546249447373093e+00
1.142040583023721112e+01,4.977665980261110512e+00
1.144041154615604405e+01,4.945606461295424694e+00
1.146041726207487876e+01,4.445328596528576703e+00
1.148042297799371170e+01,4.232238298020030598e+00
1.150042869391254641e+01,4.628019907565315449e+00
1.152043440983138112e+01,5.133606093412828031e+00
1.154044012575021405e+01,4.380188530866076846e+00
1.156044584166904876e+01,4.461997501628136575e+00
1.158045155758788169e+01,4.183548277246377012e+00
1.160045727350671640e+01,5.007241807687912605e+00
1.162046298942555111e+01,4.563926749871654032e+00
1.164046870534438405e+01,3.952337077053656778e+00
1.166047442126321876e+01,4.247523868053503016e+00
1.168048013718205169e+01,4.667854162210535840e+00
1.170048585310088640e+01,4.179053898689684132e+00
1.172049156901971934e+01,3.983871507395685185e+00
1.174049728493855405e+01,3.583949850088560041e+00
1.176050300085738698e+01,4.070919825480961762e+00
1.178050871677622169e+01,4.496064911412474885e+00
1.180051443269505640e+01,3.892686947439176315e+00
1.182052014861388933e+01,4.311393810230159218e+00
1.184052586453272404e+01,4.081552256932779343e+00
1.186053158045155698e+01,4.156766433361100965e+00
1.188053729637039169e+01,4.142911062495171493e+00
1.190054301228922640e+01,4.080086156742513737e+00
1.192054872820805933e+01,4.853372747833168077e+00
1.194055444412689404e+01,4.074638595388383244e+00
1.196056016004572697e+01,4.389997482074941004e+00
1.198056587596456168e+01,4.231491683686898320e+00
1.200057159188339639e+01,4.693721796612957853e+00
1.202057730780222933e+01,3.887638973553701138e+00
1.204058302372106226e+01,4.341593256774915588e+00
1.206058873963989697e+01,4.336116382643147915e+00
1.208059445555873168e+01,5.036427732292430903e+00
1.210060017147756461e+01,4.045649225554901918e+00
1.212060588739639932e+01,3.455257617028012707e+00
1.214061160331523226e+01,3.972792995352152801e+00
1.216061731923406697e+01,4.634754581581880473e+00
1.218062303515290168e+01,4.040823171284333881e+00
1.220062875107173461e+01,3.644353588965286050e+00
1.222063446699056932e+01,4.014526105703422942e+00
1.224064018290940226e+01,4.410824348770482572e+00
1.226064589882823697e+01,4.497164554507369516e+00
1.228065161474707168e+01,4.101815672460426221e+00
1.230065733066590461e+01,4.239060998031117578e+00
1.232066304658473754e+01,3.529377152104307136e+00
1.234066876250357225e+01,3.856178839779136336e+00
1.236067447842240696e+01,4.569628424467305550e+00
1.238068019434123990e+01,4.610509013413224721e+00
1.240068591026007461e+01,4.879718126675973267e+00
1.242069162617890754e+01,4.848417534168877552e+00
1.244069734209774225e+01,4.244784508438957715e+00
1.246070305801657696e+01,5.263761404082150541e+00
1.248070877393540989e+01,5.326222780141854685e+00
1.250071448985424460e+01,4.721982206692826978e+00
1.252072020577307754e+01,4.251454061951347008e+00
1.254072592169191225e+01,4.653906247076873726e+00
1.256073163761074696e+01,4.876320367692466462e+00
1.258073735352957989e+01,5.521795335903437518e+00
1.260074306944841460e+01,4.883524712656749145e+00
1.262074878536724754e+01,5.991994412120654978e+00
1.264075450128608225e+01,5.737783724205010039e+00
1.266076021720491518e+01,5.301796115887585259e+00
1.268076593312374989e+01,5.657873883407631865e+00
1.270077164904258282e+01,6.579936857662211480e+00
1.272077736496141753e+01,5.552331173159528177e+00
1.274078308088025224e+01,6.193304766224751567e+00
1.276078879679908518e+01,6.150115470583962463e+00
1.278079451271791989e+01,6.072796632160626373e+00
1.280080022863675282e+01,7.096437661475159864e+00
1.282080594455558753e+01,6.321474070645028753e+00
1.284081166047442224e+01,6.959740078453792833e+00
1.286081737639325517e+01,6.603781256799199362e+00
1.288082309231208988e+01,7.223674031467359313e+00
1.290082880823092282e+01,7.551078245516986698e+00
1.292083452414975753e+01,7.505493078854790667e+00
1.294084024006859224e+01,7.736873043460743560e+00
1.296084595598742517e+01,7.120499965297959477e+00
1.298085167190625810e+01,8.060780917813648472e+00
1.300085738782509281e+01,8.157576767414935759e+00
1.302086310374392752e+01,8.439649126584079397e+00
1.304086881966276046e+01,9.020210536300183435e+00
1.306087453558159517e+01,9.044541877850644340e+00
1.308088025150042810e+01,9.061969739861579498e+00
1.310088596741926281e+01,9.542956223898073631e+00
1.312089168333809752e+01,9.940887208163251998e+00
1.314089739925693046e+01,1.009173444981917989e+01
1.316090311517576517e+01,1.021135110219695719e+01
1.318090883109459810e+01,1.054999744416270779e+01
1.320091454701343281e+01,1.081666262671494216e+01
1.322092026293226752e+01,1.074885268053470710e+01
1.324092597885110045e+01,1.173305645826915011e+01
1.326093169476993339e+01,1.088288530221001338e+01
1.328093741068876810e+01,1.241336682518284462e+01
1.330094312660760281e+01,1.224582534695985281e+01
1.332094884252643574e+01,1.295297282893224278e+01
1.334095455844527045e+01,1.259275616805229703e+01
1.336096027436410338e+01,1.311680437890128736e+01
1.338096599028293809e+01,1.343632961911850465e+01
1.340097170620177280e+01,1.402891082146373236e+01
1.342097742212060574e+01,1.454009797722555675e+01
1.344098313803944045e+01,1.460884605459260044e+01
1.346098885395827338e+01,1.532697264120382741e+01
1.348099456987710809e+01,1.549548144242626790e+01
1.350100028579594280e+01,1.576934025539278394e+01
1.352100600171477573e+01,1.688745238857516995e+01
1.354101171763361044e+01,1.639251432332997283e+01
1.356101743355244338e+01,1.698295824703282264e+01
1.358102314947127809e+01,1.687938228938445917e+01
1.360102886539011102e+01,1.775544769059582961e+01
1.362103458130894573e+01,1.845764289033647643e+01
1.364104029722777867e+01,1.873565484275808046e+01
1.366104601314661338e+01,1.915587734795185426e+01
1.368105172906544809e+01,1.880091387397341407e+01
1.370105744498428102e+01,1.954182139065392931e+01
1.372106316090311573e+01,2.109139186504980401e+01
1.374106887682194866e+01,2.048027608978948066e+01
1.376107459274078337e+01,2.171101177200986143e+01
1.378108030865961808e+01,2.207802301453078542e+01
1.380108602457845102e+01,2.255428681401165392e+01
1.382109174049728573e+01,2.287940197670363318e+01
1.384109745641611866e+01,2.408241288070706076e+01
1.386110317233495337e+01,2.488942189998077481e+01
1.388110888825378808e+01,2.518125430852479241e+01
1.390111460417262101e+01,2.541988309588942840e+01
1.392112032009145395e+01,2.656281571508505124e+01
1.394112603601028866e+01,2.691111738427105848e+01
1.396113175192912337e+01,2.771715105099061560e+01
1.398113746784795630e+01,2.913632216349655835e+01
1.400114318376679101e+01,3.001349935756887533e+01
1.402114889968562395e+01,3.019104086917345242e+01
1.404115461560445866e+01,3.099210652910025487e+01
1.406116033152329337e+01,3.107391617563015274e+01
1.408116604744212630e+01,3.242985808857132923e+01
1.410117176336095923e+01,3.376604718242370495e+01
1.412117747927979394e+01,3.378782028462700282e+01
1.414118319519862865e+01,3.502114012859902914e+01
1.416118891111746336e+01,3.631468307207625656e+01
1.418119462703629630e+01,3.713656541003938116e+01
1.420120034295512923e+01,3.795151885790633628e+01
1.422120605887396394e+01,3.871116353582169722e+01
1.424121177479279865e+01,4.012149440681808699e+01
1.426121749071163336e+01,4.126683247373500762e+01
1.428122320663046629e+01,4.136256284913666548e+01
1.430122892254929923e+01,4.288459876335714682e+01
1.432123463846813394e+01,4.359186282083889807e+01
1.434124035438696865e+01,4.498778924708211235e+01
1.436124607030580158e+01,4.521395056518023381e+01
1.438125178622463629e+01,4.609312342576615151e+01
1.440125750214346922e+01,4.756698102058692257e+01
1.442126321806230393e+01,4.776984151633006093e+01
1.444126893398113864e+01,4.869172757977518273e+01
1.446127464989997158e+01,4.967075753233299906e+01
1.448128036581880451e+01,5.000780158431960132e+01
1.450128608173763922e+01,4.959287940350006352e+01
1.452129179765647393e+01,4.991961704686440271e+01
1.454129751357530864e+01,4.955824907731020090e+01
1.456130322949414158e+01,4.940061488558338709e+01
1.458130894541297451e+01,4.863962041332053587e+01
1.460131466133180922e+01,4.769793225908766487e+01
1.462132037725064393e+01,4.729668424182398212e+01
1.464132609316947686e+01,4.576532906307444648e+01
1.466133180908831157e+01,4.385426638213088069e+01
1.468133752500714451e+01,4.272916316290617544e+01
1.470134324092597922e+01,4.077652496365358559e+01
1.472134895684481393e+01,3.838342479582484401e+01
1.474135467276364686e+01,3.532051888149884888e+01
1.476136038868247979e+01,3.318928521817562682e+01
1.478136610460131450e+01,3.038707715768049056e+01
1.480137182052014921e+01,2.796867731125643886e+01
1.482137753643898392e+01,2.551036098108205863e+01
1.484138325235781686e+01,2.454761444181163199e+01
1.486138896827664979e+01,2.200258997370835345e+01
1.488139468419548450e+01,2.037104478711525601e+01
1.490140040011431921e+01,1.899050643756233114e+01
1.492140611603315392e+01,1.748461037770444904e+01
1.494141183195198685e+01,1.678845777491571312e+01
1.496141754787081979e+01,1.563350126195097189e+01
1.498142326378965450e+01,1.484660239599120324e+01
1.500142897970848921e+01,1.401145011272482854e+01
1.502143469562732214e+01,1.431005023839023949e+01
1.504144041154615508e+01,1.392079968522500266e+01
1.506144612746498979e+01,1.275561147628947012e+01
1.508145184338382450e+01,1.312704121931599843e+01
1.510145755930265921e+01,1.248431126060049756e+01
1.512146327522149214e+01,1.212516337090900009e+01
1.514146899114032507e+01,1.190476239136707548e+01
1.516147470705915978e+01,1.216238200325548746e+01
1.518148042297799449e+01,1.163798485111754921e+01
1.520148613889682920e+01,1.070459942226050387e+01
1.522149185481566214e+01,1.142680529461427241e+01
1.524149757073449507e+01,1.053079550961370714e+01
1.526150328665332978e+01,9.833131085936180682e+00
1.528150900257216449e+01,9.645787799835215282e+00
1.530151471849099742e+01,1.011553516696044674e+01
1.532152043440983036e+01,9.347423518472888659e+00
1.534152615032866507e+01,9.613747853832453671e+00
1.536153186624749978e+01,9.087081479662046490e+00
1.538153758216633449e+01,8.108020715698298631e+00
1.540154329808516742e+01,8.393940421079403080e+00
1.542154901400400036e+01,8.823963634718461790e+00
1.544155472992283507e+01,8.896803999657993955e+00
1.546156044584166978e+01,8.550339571077170575e+00
1.548156616176050449e+01,8.223585098850255903e+00
1.550157187767933742e+01,8.745879451262222659e+00
1.552157759359817035e+01,8.993867865029475439e+00
1.554158330951700506e+01,8.699318581384867244e+00
1.556158902543583977e+01,9.451360117183398302e+00
1.558159474135467271e+01,9.694430093632814049e+00
1.560160045727350742e+01,9.669856221278120501e+00
1.562160617319234035e+01,9.630100598288997560e+00
1.564161188911117506e+01,1.011009167396185227e+01
1.566161760503000977e+01,1.075908856485384746e+01
1.568162332094884270e+01,1.064296565118143079e+01
1.570162903686767564e+01,1.050395307337799977e+01
1.572163475278651035e+01,1.116747876610050483e+01
1.574164046870534506e+01,1.261006285969039808e+01
1.576164618462417977e+01,1.271646106220259576e+01
1.578165190054301270e+01,1.214298151324320507e+01
1.580165761646184563e+01,1.355000805816252907e+01
1.582166333238068034e+01,1.403739351486881759e+01
1.584166904829951505e+01,1.345168870868231892e+01
1.586167476421834799e+01,1.499680189816768916e+01
1.588168048013718270e+01,1.559939539626030403e+01
1.590168619605601563e+01,1.576978554824379941e+01
1.592169191197485034e+01,1.551873114822548239e+01
1.594169762789368505e+01,1.606301510009233979e+01
1.596170334381251799e+01,1.767707169547180257e+01
1.598170905973135092e+01,1.764204047282323273e+01
1.600171477565018563e+01,1.885230495826979080e+01
1.602172049156902034e+01,1.941824399934021272e+01
1.604172620748785505e+01,2.007618284242742135e+01
1.606173192340668976e+01,2.079283398087358492e+01
1.608173763932552092e+01,2.087529953741621114e+01
1.610174335524435563e+01,2.181961129963318058e+01
1.612174907116319034e+01,2.312864241532967924e+01
1.614175478708202505e+01,2.365494336695775957e+01
1.616176050300085620e+01,2.501044797891040972e+01
1.618176621891969091e+01,2.654046267312664042e+01
1.620177193483852562e+01,2.714628406199438615e+01
1.622177765075736033e+01,2.724354567324899534e+01
1.624178336667619504e+01,2.896903848624913991e+01
1.626178908259502620e+01,2.966582258446072018e+01
1.628179479851386091e+01,3.087711061581767780e+01
1.630180051443269562e+01,3.170354151019394351e+01
1.632180623035153033e+01,3.362059857985330780e+01
1.634181194627036149e+01,3.466148319841867931e+01
1.636181766218919620e+01,3.492437609378539776e+01
1.638182337810803091e+01,3.632006825792253579e+01
1.640182909402686562e+01,3.849344533713896510e+01
1.642183480994570033e+01,4.033862200491807926e+01
1.644184052586453504e+01,4.057507209422585959e+01
1.646184624178336620e+01,4.279642617435276719e+01
1.648185195770220091e+01,4.404830446223314766e+01
1.650185767362103562e+01,4.549862498919801368e+01
1.652186338953986677e+01,4.734792334230116495e+01
1.654186910545870148e+01,4.900837172879063530e+01
1.656187482137753619e+01,5.051550219635788608e+01
1.658188053729637090e+01,5.197233087151513331e+01
1.660188625321520561e+01,5.417899267634943072e+01
1.662189196913404032e+01,5.558184399101831730e+01
1.664189768505287148e+01,5.705143349678034781e+01
1.666190340097170619e+01,5.968522699763749984e+01
1.668190911689054090e+01,6.132830146940230520e+01
1.670191483280937561e+01,6.344547292735075672e+01
1.672192054872820677e+01,6.563745128351006031e+01
1.674192626464704148e+01,6.740252114746526502e+01
1.676193198056587619e+01,6.986152020195349621e+01
1.678193769648471090e+01,7.200637648053904627e+01
1.680194341240354561e+01,7.379216238977554099e+01
1.682194912832238032e+01,7.663395631623808413e+01
1.684195484424121148e+01,7.860614224989188870e+01
1.686196056016004619e+01,8.071559867809324373e+01
1.688196627607888090e+01,8.356085874965434357e+01
1.690197199199771205e+01,8.508078932040262998e+01
1.692197770791654676e+01,8.742825737350125337e+01
1.694198342383538147e+01,8.961574924290619037e+01
1.696198913975421618e+01,9.200080801003215925e+01
1.698199485567305089e+01,9.269927811470174106e+01
1.700200057159188560e+01,9.423716449894922675e+01
1.702200628751071676e+01,9.618532275133567566e+01
1.704201200342955147e+01,9.708633717353949066e+01
1.706201771934838618e+01,9.726356516312642952e+01
1.708202343526722089e+01,9.828322643933213953e+01
1.710202915118605205e+01,9.657188418870423163e+01
1.712203486710488676e+01,9.705505137831229945e+01
1.714204058302372147e+01,9.475617386251971652e+01
1.716204629894255618e+01,9.427865450792603497e+01
1.718205201486139089e+01,9.266083459293118096e+01
1.720205773078022204e+01,9.032170453992937098e+01
1.722206344669905675e+01,8.795731642457894850e+01
1.724206916261789146e+01,8.437667122491367877e+01
1.726207487853672617e+01,8.244820208544666684e+01
1.728208059445555733e+01,7.969261254289716589e+01
1.730208631037439204e+01,7.553065865980661897e+01
1.732209202629322675e+01,7.279234589601114180e+01
1.734209774221206146e+01,7.103255539887975090e+01
1.736210345813089617e+01,6.887508209151235405e+01
1.738210917404973088e+01,6.699441144156187988e+01
1.740211488996856204e+01,6.530620526262654835e+01
1.742212060588739675e+01,6.384076196381516155e+01
1.744212632180623146e+01,6.416752914126327312e+01
1.746213203772506262e+01,6.294614075552036780e+01
1.748213775364389733e+01,6.273620670329463422e+01
1.750214346956273204e+01,6.269982321155000449e+01
1.752214918548156675e+01,6.392433602582946861e+01
1.754215490140040146e+01,6.458814344837053056e+01
1.756216061731923617e+01,6.453454602003571949e+01
1.758216633323806732e+01,6.510570561455267580e+01
1.760217204915690203e+01,6.654988875184889707e+01
1.762217776507573674e+01,6.753524629077554664e+01
1.764218348099457145e+01,6.854435201130681321e+01
1.766218919691340261e+01,6.923078962270037096e+01
1.768219491283223732e+01,6.955134348067969086e+01
1.770220062875107203e+01,7.135150582868702429e+01
1.772220634466990674e+01,7.258350606167654462e+01
1.774221206058874145e+01,7.260215800695948474e+01
1.776221777650757616e+01,7.464240873392867570e+01
1.778222349242640732e+01,7.547531227455692715e+01
1.780222920834524203e+01,7.562639679897205269e+01
1.782223492426407674e+01,7.581345562469246602e+01
1.784224064018290790e+01,7.622105841365288370e+01
1.786224635610174261e+01,7.520895587191613174e+01
1.788225207202057732e+01,7.592973725505397908e+01
1.790225778793941203e+01,7.403341245957838623e+01
1.792226350385824674e+01,7.338403239562123304e+01
1.794226921977708145e+01,7.122159953425179424e+01
1.796227493569591260e+01,6.879714658509396941e+01
