angle,intensity
1.000000000000000000e+01,1.000000000000000000e+02
1.002000571591883471e+01,9.881551418691805111e+01
1.004001143183766764e+01,9.331805766820423287e+01
1.006001714775650235e+01,8.865741091917084304e+01
1.008002286367533529e+01,8.198610747355657224e+01
1.010002857959417000e+01,7.712779135623868854e+01
1.012003429551300293e+01,7.036270085022107423e+01
1.014004001143183764e+01,6.405246370200315198e+01
1.016004572735067235e+01,5.843502166935714115e+01
1.018005144326950528e+01,5.283217379554693593e+01
1.020005715918833999e+01,4.636582360426105964e+01
1.022006287510717293e+01,4.130560059557835473e+01
1.024006859102600764e+01,3.844529456512959342e+01
1.026007430694484057e+01,3.413308494433407958e+01
1.028008002286367528e+01,3.069837880143950315e+01
1.030008573878250999e+01,2.889699607137108828e+01
1.032009145470134293e+01,2.730987748027620654e+01
1.034009717062017764e+01,2.407779540553451270e+01
1.036010288653901057e+01,2.394786598274697553e+01
1.038010860245784528e+01,2.350838882791127560e+01
1.040011431837667999e+01,2.174718514114642431e+01
1.042012003429551292e+01,2.081503183599213358e+01
1.044012575021434763e+01,2.131971222579555558e+01
1.046013146613318057e+01,2.019761900414294331e+01
1.048013718205201528e+01,2.078032645865842554e+01
1.050014289797084821e+01,2.057947014750810055e+01
1.052014861388968292e+01,2.001762781727812168e+01
1.054015432980851585e+01,2.172062971786954577e+01
1.056016004572735056e+01,2.014372015112728320e+01
1.058016576164618527e+01,2.181899190523207110e+01
1.060017147756501821e+01,2.161215375487919488e+01
1.062017719348385292e+01,2.169730972513216116e+01
1.064018290940268585e+01,2.287397858396570882e+01
1.066018862532152056e+01,2.221398525179568750e+01
1.068019434124035527e+01,2.307216499995155345e+01
1.070020005715918820e+01,2.329108004779813612e+01
1.072020577307802292e+01,2.326525667720006396e+01
1.074021148899685585e+01,2.310450855257764857e+01
1.076021720491569056e+01,2.303748433574500254e+01
1.078022292083452349e+01,2.421849889993458049e+01
1.080022863675335820e+01,2.419269459368143060e+01
1.082023435267219291e+01,2.540365492030527150e+01
1.084024006859102585e+01,2.573955202843292867e+01
1.086024578450986056e+01,2.663911200426128900e+01
1.088025150042869349e+01,2.616762038780052535e+01
1.090025721634752820e+01,2.766733524076449413e+01
1.092026293226636113e+01,2.815564086315329106e+01
1.094026864818519584e+01,2.872602624691045747e+01
1.096027436410403055e+01,2.960419081787164686e+01
1.098028008002286349e+01,2.892617051949579121e+01
1.100028579594169820e+01,2.998855324151241675e+01
1.102029151186053113e+01,3.114684182657842726e+01
1.104029722777936584e+01,2.998456699124504610e+01
1.106030294369819877e+01,3.162854305515537945e+01
1.108030865961703348e+01,3.189337860810647385e+01
1.110031437553586819e+01,3.329464371626076513e+01
1.112032009145470113e+01,3.276678442940288960e+01
1.114032580737353584e+01,3.429714925893089372e+01
1.116033152329236877e+01,3.555907660740943044e+01
1.118033723921120348e+01,3.573212169602039268e+01
1.120034295513003642e+01,3.712485717174283195e+01
1.122034867104887113e+01,3.592980012935719003e+01
1.124035438696770584e+01,3.773832460586399407e+01
1.126036010288653877e+01,3.895018445087372783e+01
1.128036581880537348e+01,3.876421758052254773e+01
1.130037153472420641e+01,4.056669536499165929e+01
1.132037725064304112e+01,4.020078571772715037e+01
1.134038296656187583e+01,4.183600905112191981e+01
1.136038868248070877e+01,4.141455823285252080e+01
1.138039439839954348e+01,4.303484146331101812e+01
1.140040011431837641e+01,4.377242489533651337e+01
1.142040583023721112e+01,4.286797807262471594e+01
1.144041154615604405e+01,4.374264596304237784e+01
1.146041726207487876e+01,4.416136357113368405e+01
1.148042297799371170e+01,4.426019113093610713e+01
1.150042869391254641e+01,4.520611392988904242e+01
1.152043440983138112e+01,4.470932598228356625e+01
1.154044012575021405e+01,4.462605296624606410e+01
1.156044584166904876e+01,4.483168649091440017e+01
1.158045155758788169e+01,4.488006924705416623e+01
1.160045727350671640e+01,4.421783982772836197e+01
1.162046298942555111e+01,4.528010367215405552e+01
1.164046870534438405e+01,4.322335729107719970e+01
1.166047442126321876e+01,4.227923666501533262e+01
1.168048013718205169e+01,4.179809047598217120e+01
1.170048585310088640e+01,4.002393972216980700e+01
1.172049156901971934e+01,3.978711036312268590e+01
1.174049728493855405e+01,3.784096318655548430e+01
1.176050300085738698e+01,3.426318440644189423e+01
1.178050871677622169e+01,3.312808194144234619e+01
1.180051443269505640e+01,2.980001239039507865e+01
1.182052014861388933e+01,2.747658364567278610e+01
1.184052586453272404e+01,2.435504960235920890e+01
1.186053158045155698e+01,2.219667324032858957e+01
1.188053729637039169e+01,1.876468189916957385e+01
1.190054301228922640e+01,1.619928192163072467e+01
1.192054872820805933e+01,1.443832390562593382e+01
1.194055444412689404e+01,1.341334118390236441e+01
1.196056016004572697e+01,1.070841534603289880e+01
1.198056587596456168e+01,9.187475985141777102e+00
1.200057159188339639e+01,8.601329399390753139e+00
1.202057730780222933e+01,7.068837219421621576e+00
1.204058302372106226e+01,5.979306319391648472e+00
1.206058873963989697e+01,5.219226752231995725e+00
1.208059445555873168e+01,4.424219381934865858e+00
1.210060017147756461e+01,4.763733242216886765e+00
1.212060588739639932e+01,4.499613790629635623e+00
1.214061160331523226e+01,4.100297453230772327e+00
1.216061731923406697e+01,3.304970072323936137e+00
1.218062303515290168e+01,3.231832340208257381e+00
1.220062875107173461e+01,4.117868980529197920e+00
1.222063446699056932e+01,3.934617405783693123e+00
1.224064018290940226e+01,2.845671785985006252e+00
1.226064589882823697e+01,3.986452292880605874e+00
1.228065161474707168e+01,3.465079200991039166e+00
1.230065733066590461e+01,3.328967748065696508e+00
1.232066304658473754e+01,3.020100470946185389e+00
1.234066876250357225e+01,3.171274787584521082e+00
1.236067447842240696e+01,3.162037108877309599e+00
1.238068019434123990e+01,2.679865572856568789e+00
1.240068591026007461e+01,2.632541275580631446e+00
1.242069162617890754e+01,2.653575922262403797e+00
1.244069734209774225e+01,1.852504936098861466e+00
1.246070305801657696e+01,2.114301361840403182e+00
1.248070877393540989e+01,2.855706098571506146e+00
1.250071448985424460e+01,3.465258520293051259e+00
1.252072020577307754e+01,3.234994204333118795e+00
1.254072592169191225e+01,1.795084447526807514e+00
1.256073163761074696e+01,3.367365414429702053e+00
1.258073735352957989e+01,3.349568932386006725e+00
1.260074306944841460e+01,1.802753831426191278e+00
1.262074878536724754e+01,1.655174467693679929e+00
1.264075450128608225e+01,3.327455534432897100e+00
1.266076021720491518e+01,2.486707697464708655e+00
1.268076593312374989e+01,3.183932097736777767e+00
1.270077164904258282e+01,2.516563700865166453e+00
1.272077736496141753e+01,1.684747716611030066e+00
1.274078308088025224e+01,1.652452041208181788e+00
1.276078879679908518e+01,1.562406577981246603e+00
1.278079451271791989e+01,2.684915165338417786e+00
1.280080022863675282e+01,1.630146738809568063e+00
1.282080594455558753e+01,3.169720401955013589e+00
1.284081166047442224e+01,2.197805329740167402e+00
1.286081737639325517e+01,2.731446175712771485e+00
1.288082309231208988e+01,3.003153304954346403e+00
1.290082880823092282e+01,2.566611394346509645e+00
1.292083452414975753e+01,2.296859992811558282e+00
1.294084024006859224e+01,2.966086182602985399e+00
1.296084595598742517e+01,1.786941124785383250e+00
1.298085167190625810e+01,2.058828385392828419e+00
1.300085738782509281e+01,2.636025249841430274e+00
1.302086310374392752e+01,3.416396288288304106e+00
1.304086881966276046e+01,2.365084523383619963e+00
1.306087453558159517e+01,2.266930532261396181e+00
1.308088025150042810e+01,2.932987697749003253e+00
1.310088596741926281e+01,2.931147382985175742e+00
1.312089168333809752e+01,1.651892789720044163e+00
1.314089739925693046e+01,1.741003509105620850e+00
1.316090311517576517e+01,2.693507788281960025e+00
1.318090883109459810e+01,2.169144186618515491e+00
1.320091454701343281e+01,3.325583920762915646e+00
1.322092026293226752e+01,1.958046665591959501e+00
1.324092597885110045e+01,2.469317015295241280e+00
1.326093169476993339e+01,3.376674956127991845e+00
1.328093741068876810e+01,2.679898536341986937e+00
1.330094312660760281e+01,1.637318094883316366e+00
1.332094884252643574e+01,2.019752909243458738e+00
1.334095455844527045e+01,2.908003121025450888e+00
1.336096027436410338e+01,1.861606287766595758e+00
1.338096599028293809e+01,2.372291444290374862e+00
1.340097170620177280e+01,3.140844987911705743e+00
1.342097742212060574e+01,2.773799095812792714e+00
1.344098313803944045e+01,2.077108278128641849e+00
1.346098885395827338e+01,2.524618046244812231e+00
1.348099456987710809e+01,1.785150308164020316e+00
1.350100028579594280e+01,2.122728260456159699e+00
1.352100600171477573e+01,1.868078136836868408e+00
1.354101171763361044e+01,3.419676543223483911e+00
1.356101743355244338e+01,3.053530792002858707e+00
1.358102314947127809e+01,2.978489028602811395e+00
1.360102886539011102e+01,3.191214786750408372e+00
1.362103458130894573e+01,3.243784943440347845e+00
1.364104029722777867e+01,3.046797678965612377e+00
1.366104601314661338e+01,3.128253419312770234e+00
1.368105172906544809e+01,3.522630366909802024e+00
1.370105744498428102e+01,2.213915066051422631e+00
1.372106316090311573e+01,3.330917241726209177e+00
1.374106887682194866e+01,3.088666496163441355e+00
1.376107459274078337e+01,2.925920860373401045e+00
1.378108030865961808e+01,2.703189592813417530e+00
1.380108602457845102e+01,2.486565532798692857e+00
1.382109174049728573e+01,3.216773249500893161e+00
1.384109745641611866e+01,2.988772604092236662e+00
1.386110317233495337e+01,2.763413883292497264e+00
1.388110888825378808e+01,1.726254024228848882e+00
1.390111460417262101e+01,3.163320042871112125e+00
1.392112032009145395e+01,2.145590376188015291e+00
1.394112603601028866e+01,2.208322523434238960e+00
1.396113175192912337e+01,2.644288166901749726e+00
1.398113746784795630e+01,2.247428257972726051e+00
1.400114318376679101e+01,3.206813936417763244e+00
1.402114889968562395e+01,2.390948706601123686e+00
1.404115461560445866e+01,1.913338133863695001e+00
1.406116033152329337e+01,3.156763957296953027e+00
1.408116604744212630e+01,3.312179590982704092e+00
1.410117176336095923e+01,3.437712789273409619e+00
1.412117747927979394e+01,2.395607922202684037e+00
1.414118319519862865e+01,2.496606137329465458e+00
1.416118891111746336e+01,2.556275921049294020e+00
1.418119462703629630e+01,1.839295600343825665e+00
1.420120034295512923e+01,3.534546008254631388e+00
1.422120605887396394e+01,3.011231420384170132e+00
1.424121177479279865e+01,3.478795944152256236e+00
1.426121749071163336e+01,3.410315561657089489e+00
1.428122320663046629e+01,3.521115604577367275e+00
1.430122892254929923e+01,3.481846528864120494e+00
1.432123463846813394e+01,2.519229919847898458e+00
1.434124035438696865e+01,2.715885059610834595e+00
1.436124607030580158e+01,2.088261812809586893e+00
1.438125178622463629e+01,3.652657435859455237e+00
1.440125750214346922e+01,2.173150817211552788e+00
1.442126321806230393e+01,3.804315694700274975e+00
1.444126893398113864e+01,3.270940221642813395e+00
1.446127464989997158e+01,2.829798489710101617e+00
1.448128036581880451e+01,4.134599172100599240e+00
1.450128608173763922e+01,3.507199150666013843e+00
1.452129179765647393e+01,3.078580244284137457e+00
1.454129751357530864e+01,3.662433434414946731e+00
1.456130322949414158e+01,3.540303199308065363e+00
1.458130894541297451e+01,4.036546254237341813e+00
1.460131466133180922e+01,3.536441994288446189e+00
1.462132037725064393e+01,4.483451214670317597e+00
1.464132609316947686e+01,4.234227919290244557e+00
1.466133180908831157e+01,4.287335480126436060e+00
1.468133752500714451e+01,4.298062220352277585e+00
1.470134324092597922e+01,3.322887298174201920e+00
1.472134895684481393e+01,3.701018939068694280e+00
1.474135467276364686e+01,4.958431675652570370e+00
1.476136038868247979e+01,5.135236522679588411e+00
1.478136610460131450e+01,4.549873907066073642e+00
1.480137182052014921e+01,4.063444114319621825e+00
1.482137753643898392e+01,5.492280747411474984e+00
1.484138325235781686e+01,4.151687563107143042e+00
1.486138896827664979e+01,6.129503885131539320e+00
1.488139468419548450e+01,4.405849031877514754e+00
1.490140040011431921e+01,5.050563415463588335e+00
1.492140611603315392e+01,6.471349511334714144e+00
1.494141183195198685e+01,4.967326406877468514e+00
1.496141754787081979e+01,5.707959168982473130e+00
1.498142326378965450e+01,5.694100935896472038e+00
1.500142897970848921e+01,6.321881441003933233e+00
1.502143469562732214e+01,6.049975975902007974e+00
1.504144041154615508e+01,6.840253695086071062e+00
1.506144612746498979e+01,6.742001757432844578e+00
1.508145184338382450e+01,7.631861325303136212e+00
1.510145755930265921e+01,7.324238390752126904e+00
1.512146327522149214e+01,8.065697904090646020e+00
1.514146899114032507e+01,8.057740786525609877e+00
1.516147470705915978e+01,7.810625767444591361e+00
1.518148042297799449e+01,7.964252645820084631e+00
1.520148613889682920e+01,7.943755986476280562e+00
1.522149185481566214e+01,9.197167597982966569e+00
1.524149757073449507e+01,9.280794608195220619e+00
1.526150328665332978e+01,8.681324567551008897e+00
1.528150900257216449e+01,1.001287910910986767e+01
1.530151471849099742e+01,1.039475978202925077e+01
1.532152043440983036e+01,1.071414785737718312e+01
1.534152615032866507e+01,1.023470423788612749e+01
1.536153186624749978e+01,1.068364532033931269e+01
1.538153758216633449e+01,1.021462087994050094e+01
1.540154329808516742e+01,1.193324647852584519e+01
1.542154901400400036e+01,1.044713391407355019e+01
1.544155472992283507e+01,1.132867412478404745e+01
1.546156044584166978e+01,1.174166668603191255e+01
1.548156616176050449e+01,1.194603797037309434e+01
1.550157187767933742e+01,1.351106282538012060e+01
1.552157759359817035e+01,1.315663459573301530e+01
1.554158330951700506e+01,1.376441858397869034e+01
1.556158902543583977e+01,1.384872859361619923e+01
1.558159474135467271e+01,1.379791902049855246e+01
1.560160045727350742e+01,1.428257555213832219e+01
1.562160617319234035e+01,1.556766408124475376e+01
1.564161188911117506e+01,1.654361164008587082e+01
1.566161760503000977e+01,1.548192742570833502e+01
1.568162332094884270e+01,1.615327489757124368e+01
1.570162903686767564e+01,1.655699177249496401e+01
1.572163475278651035e+01,1.723265071235093515e+01
1.574164046870534506e+01,1.762627311467445423e+01
1.576164618462417977e+01,1.854222143729940697e+01
1.578165190054301270e+01,1.885299978007226684e+01
1.580165761646184563e+01,1.867025269833751366e+01
1.582166333238068034e+01,1.964890785978572296e+01
1.584166904829951505e+01,2.140064094878874101e+01
1.586167476421834799e+01,2.154872900235354294e+01
1.588168048013718270e+01,2.177166591304383658e+01
1.590168619605601563e+01,2.216368931794031738e+01
1.592169191197485034e+01,2.335860464906378553e+01
1.594169762789368505e+01,2.415036813615995470e+01
1.596170334381251799e+01,2.390359832162967990e+01
1.598170905973135092e+01,2.570402235724071716e+01
1.600171477565018563e+01,2.547388814452033756e+01
1.602172049156902034e+01,2.602241003694707899e+01
1.604172620748785505e+01,2.778487451208781422e+01
1.606173192340668976e+01,2.745163934665755079e+01
1.608173763932552092e+01,2.909853187604714719e+01
1.610174335524435563e+01,2.892014081556628824e+01
1.612174907116319034e+01,3.034000715784948454e+01
1.614175478708202505e+01,3.150387253961165257e+01
1.616176050300085620e+01,3.204091867743544952e+01
1.618176621891969091e+01,3.218711917880852269e+01
1.620177193483852562e+01,3.120204158605716671e+01
1.622177765075736033e+01,3.184403813167920916e+01
1.624178336667619504e+01,3.167459791097554600e+01
1.626178908259502620e+01,3.170556781204656360e+01
1.628179479851386091e+01,3.291419903498498911e+01
1.630180051443269562e+01,3.137778528632891195e+01
1.632180623035153033e+01,3.221834181139328734e+01
1.634181194627036149e+01,3.165031659830842869e+01
1.636181766218919620e+01,2.941926332300328895e+01
1.638182337810803091e+01,2.985733779962627565e+01
1.640182909402686562e+01,2.752485070327701777e+01
1.642183480994570033e+01,2.584870463589547640e+01
1.644184052586453504e+01,2.445764679545935394e+01
1.646184624178336620e+01,2.411281310151580115e+01
1.648185195770220091e+01,2.125457453644585826e+01
1.650185767362103562e+01,1.876270865159625956e+01
1.652186338953986677e+01,1.826171150371171237e+01
1.654186910545870148e+01,1.738830154495564528e+01
1.656187482137753619e+01,1.455661345953848773e+01
1.658188053729637090e+01,1.440694859861142163e+01
1.660188625321520561e+01,1.223756819292941245e+01
1.662189196913404032e+01,1.079850173364891575e+01
1.664189768505287148e+01,1.080084293127953821e+01
1.666190340097170619e+01,8.790010355414816345e+00
1.668190911689054090e+01,7.856739054093191399e+00
1.670191483280937561e+01,7.208955552612140494e+00
1.672192054872820677e+01,7.090955696720049772e+00
1.674192626464704148e+01,6.362025465749065134e+00
1.676193198056587619e+01,5.962278243494626651e+00
1.678193769648471090e+01,6.793643798911856990e+00
1.680194341240354561e+01,5.484498344388853752e+00
1.682194912832238032e+01,5.437655169144457012e+00
1.684195484424121148e+01,6.119114761589333540e+00
1.686196056016004619e+01,5.726676700832403100e+00
1.688196627607888090e+01,4.998150735407866918e+00
1.690197199199771205e+01,5.487415766437815812e+00
1.692197770791654676e+01,3.982969056339309866e+00
1.694198342383538147e+01,4.652893030555696363e+00
1.696198913975421618e+01,4.494558921271116780e+00
1.698199485567305089e+01,4.976140731427884489e+00
1.700200057159188560e+01,4.159187542686463068e+00
1.702200628751071676e+01,4.584313352511212969e+00
1.704201200342955147e+01,4.225845974326607468e+00
1.706201771934838618e+01,4.098390238155517729e+00
1.708202343526722089e+01,3.804806397913227389e+00
1.710202915118605205e+01,4.481113321447210751e+00
1.712203486710488676e+01,3.360451523710426880e+00
1.714204058302372147e+01,3.608267679892809277e+00
1.716204629894255618e+01,3.281434194566841267e+00
1.718205201486139089e+01,4.408500547062020658e+00
1.720205773078022204e+01,3.610916491992772759e+00
1.722206344669905675e+01,3.018958089420997304e+00
1.724206916261789146e+01,2.877283926331339448e+00
1.726207487853672617e+01,3.953057330515646672e+00
1.728208059445555733e+01,3.212265095864545117e+00
1.730208631037439204e+01,4.345070662780998738e+00
1.732209202629322675e+01,4.340112715990853687e+00
1.734209774221206146e+01,4.484685659618606657e+00
1.736210345813089617e+01,3.871955582323931555e+00
1.738210917404973088e+01,2.975916774979840973e+00
1.740211488996856204e+01,4.638709282265633504e+00
1.742212060588739675e+01,3.102684411219097882e+00
1.744212632180623146e+01,4.279863618784459867e+00
1.746213203772506262e+01,4.641706893581965865e+00
1.748213775364389733e+01,2.873380888189497551e+00
1.750214346956273204e+01,3.795002889563612314e+00
1.752214918548156675e+01,4.700326805984999190e+00
1.754215490140040146e+01,4.366244451488534573e+00
1.756216061731923617e+01,3.422071295604200092e+00
1.758216633323806732e+01,2.937887390513845176e+00
1.760217204915690203e+01,3.229587012852995098e+00
1.762217776507573674e+01,3.866599477737433510e+00
1.764218348099457145e+01,3.543623313705280609e+00
1.766218919691340261e+01,4.780151462491204484e+00
1.768219491283223732e+01,3.847964060712646628e+00
1.770220062875107203e+01,4.353237227212598981e+00
1.772220634466990674e+01,3.603764711670600640e+00
1.774221206058874145e+01,4.178405557896700095e+00
1.776221777650757616e+01,4.120800140397152589e+00
1.778222349242640732e+01,3.187596242889959797e+00
1.780222920834524203e+01,4.925544677247645886e+00
1.782223492426407674e+01,3.597610721519384658e+00
1.784224064018290790e+01,4.924892419238602770e+00
1.786224635610174261e+01,5.135407048320332457e+00
1.788225207202057732e+01,4.554386217085408362e+00
1.790225778793941203e+01,5.162066230582610160e+00
1.792226350385824674e+01,4.504357344032259292e+00
1.794226921977708145e+01,4.002479679179915983e+00
1.796227493569591260e+01,5.430607932088157064e+00
