angle,intensity
1.000000000000000000e+01,9.790343770338532181e+01
1.002000571591883471e+01,9.920580849291555126e+01
1.004001143183766764e+01,9.987308138974339045e+01
1.006001714775650235e+01,9.975594364061697661e+01
1.008002286367533529e+01,9.912361756035853944e+01
1.010002857959417000e+01,9.907077554785806228e+01
1.012003429551300293e+01,9.848023248013501529e+01
1.014004001143183764e+01,9.748824124677477698e+01
1.016004572735067235e+01,9.701313727697157674e+01
1.018005144326950528e+01,9.521549060355437177e+01
1.020005715918833999e+01,9.368104424940334241e+01
1.022006287510717293e+01,9.183590082807825183e+01
1.024006859102600764e+01,8.867436827814648836e+01
1.026007430694484057e+01,8.673953714685578120e+01
1.028008002286367528e+01,8.392564622997971924e+01
1.030008573878250999e+01,8.054774248837257744e+01
1.032009145470134293e+01,7.630437414602042168e+01
1.034009717062017764e+01,7.277106891175249359e+01
1.036010288653901057e+01,6.800196658856509657e+01
1.038010860245784528e+01,6.486435456542137956e+01
1.040011431837667999e+01,6.101862957639451679e+01
1.042012003429551292e+01,5.715634822493549905e+01
1.044012575021434763e+01,5.339264188259159738e+01
1.046013146613318057e+01,5.010887457054228378e+01
1.048013718205201528e+01,4.625883768323228651e+01
1.050014289797084821e+01,4.371215766723369711e+01
1.052014861388968292e+01,4.089768457306807647e+01
1.054015432980851585e+01,3.999064973863087147e+01
1.056016004572735056e+01,3.702700051813372539e+01
1.058016576164618527e+01,3.589439607140418786e+01
1.060017147756501821e+01,3.535268886796923482e+01
1.062017719348385292e+01,3.432718290308307729e+01
1.064018290940268585e+01,3.446964111848566858e+01
1.066018862532152056e+01,3.356326606756395137e+01
1.068019434124035527e+01,3.319687148140648958e+01
1.070020005715918820e+01,3.318671724611023421e+01
1.072020577307802292e+01,3.249548572807668023e+01
1.074021148899685585e+01,3.303546559707787367e+01
1.076021720491569056e+01,3.196989427080137958e+01
1.078022292083452349e+01,3.248645594812268911e+01
1.080022863675335820e+01,3.293695290396816944e+01
1.082023435267219291e+01,3.302676504449309647e+01
1.084024006859102585e+01,3.329531987675953530e+01
1.086024578450986056e+01,3.291218154876717250e+01
1.088025150042869349e+01,3.438644150688077872e+01
1.090025721634752820e+01,3.489071890011430810e+01
1.092026293226636113e+01,3.429604389859274249e+01
1.094026864818519584e+01,3.442246381984435999e+01
1.096027436410403055e+01,3.621809856941665373e+01
1.098028008002286349e+01,3.634144146753374827e+01
1.100028579594169820e+01,3.684211194251165011e+01
1.102029151186053113e+01,3.677435400811577182e+01
1.104029722777936584e+01,3.692026324426871042e+01
1.106030294369819877e+01,3.794462396400669491e+01
1.108030865961703348e+01,3.848910713410764117e+01
1.110031437553586819e+01,3.834166490719491094e+01
1.112032009145470113e+01,3.948489405176859179e+01
1.114032580737353584e+01,4.030907711417745531e+01
1.116033152329236877e+01,3.959435881800295931e+01
1.118033723921120348e+01,4.085124782523121212e+01
1.120034295513003642e+01,4.014662663950518606e+01
1.122034867104887113e+01,4.083024701248675115e+01
1.124035438696770584e+01,4.114004922466261860e+01
1.126036010288653877e+01,4.043126179041408363e+01
1.128036581880537348e+01,4.070504078103328993e+01
1.130037153472420641e+01,4.091547715682585817e+01
1.132037725064304112e+01,4.066208097403841037e+01
1.134038296656187583e+01,4.071841754801570801e+01
1.136038868248070877e+01,4.007655237803015780e+01
1.138039439839954348e+01,3.962086183074769963e+01
1.140040011431837641e+01,3.944196213732947598e+01
1.142040583023721112e+01,3.853943148383358874e+01
1.144041154615604405e+01,3.743974190944967972e+01
1.146041726207487876e+01,3.618268716311023780e+01
1.148042297799371170e+01,3.519306026246618302e+01
1.150042869391254641e+01,3.455818316377104793e+01
1.152043440983138112e+01,3.287519065361340864e+01
1.154044012575021405e+01,3.091870872317313257e+01
1.156044584166904876e+01,2.885943303936581827e+01
1.158045155758788169e+01,2.626430257235927712e+01
1.160045727350671640e+01,2.508292048850535139e+01
1.162046298942555111e+01,2.267862699099853785e+01
1.164046870534438405e+01,2.129151209582239801e+01
1.166047442126321876e+01,1.938917404796207578e+01
1.168048013718205169e+01,1.721977758727364716e+01
1.170048585310088640e+01,1.607139750725253791e+01
1.172049156901971934e+01,1.503707666033592361e+01
1.174049728493855405e+01,1.371105005945079824e+01
1.176050300085738698e+01,1.306515190378108215e+01
1.178050871677622169e+01,1.142310173942512286e+01
1.180051443269505640e+01,1.120554367463828349e+01
1.182052014861388933e+01,1.048233190838118034e+01
1.184052586453272404e+01,9.844741819797254934e+00
1.186053158045155698e+01,8.197784974652574164e+00
1.188053729637039169e+01,8.021160590513289890e+00
1.190054301228922640e+01,7.843934509965555968e+00
1.192054872820805933e+01,6.962133533274029062e+00
1.194055444412689404e+01,7.148181177424863364e+00
1.196056016004572697e+01,6.795864518947280608e+00
1.198056587596456168e+01,6.553616835127627382e+00
1.200057159188339639e+01,6.217762348880573775e+00
1.202057730780222933e+01,6.332652609988685732e+00
1.204058302372106226e+01,5.880864869934091743e+00
1.206058873963989697e+01,6.177084416093506114e+00
1.208059445555873168e+01,6.369501182352030000e+00
1.210060017147756461e+01,5.205406422524927912e+00
1.212060588739639932e+01,5.830143099422858910e+00
1.214061160331523226e+01,5.675839224149603623e+00
1.216061731923406697e+01,4.556052876110564753e+00
1.218062303515290168e+01,5.410771257536167056e+00
1.220062875107173461e+01,5.489172466579751664e+00
1.222063446699056932e+01,5.075113024212862811e+00
1.224064018290940226e+01,5.653971490317087678e+00
1.226064589882823697e+01,5.025939684825206477e+00
1.228065161474707168e+01,5.194365942343013742e+00
1.230065733066590461e+01,5.062459630103730568e+00
1.232066304658473754e+01,4.896962676453232355e+00
1.234066876250357225e+01,4.205118367630555021e+00
1.236067447842240696e+01,4.914889513371128338e+00
1.238068019434123990e+01,4.863654863962484143e+00
1.240068591026007461e+01,4.931961736651580885e+00
1.242069162617890754e+01,4.637032362935562091e+00
1.244069734209774225e+01,5.428319160283185063e+00
1.246070305801657696e+01,4.302507054210787274e+00
1.248070877393540989e+01,4.702411299275874867e+00
1.250071448985424460e+01,3.896474986741220281e+00
1.252072020577307754e+01,4.921922185069602662e+00
1.254072592169191225e+01,4.562332518458980246e+00
1.256073163761074696e+01,4.861799480444537913e+00
1.258073735352957989e+01,4.060527925830681006e+00
1.260074306944841460e+01,4.660297035621256079e+00
1.262074878536724754e+01,3.874480195832858964e+00
1.264075450128608225e+01,4.584380693736640922e+00
1.266076021720491518e+01,4.170172201750393270e+00
1.268076593312374989e+01,4.481828514761847515e+00
1.270077164904258282e+01,3.931124773071097422e+00
1.272077736496141753e+01,3.947107934605164736e+00
1.274078308088025224e+01,4.436463592593661964e+00
1.276078879679908518e+01,4.880315251004930133e+00
1.278079451271791989e+01,4.067079365419200343e+00
1.280080022863675282e+01,4.006561705423457909e+00
1.282080594455558753e+01,4.000216807142724207e+00
1.284081166047442224e+01,4.038791618664779648e+00
1.286081737639325517e+01,4.377993537023290749e+00
1.288082309231208988e+01,4.142155772777622147e+00
1.290082880823092282e+01,3.965339413470033048e+00
1.292083452414975753e+01,4.002226965964648109e+00
1.294084024006859224e+01,4.714770452376577659e+00
1.296084595598742517e+01,4.218191070861081471e+00
1.298085167190625810e+01,3.248555196795483546e+00
1.300085738782509281e+01,4.749385867013107720e+00
1.302086310374392752e+01,4.495606930021277314e+00
1.304086881966276046e+01,4.264292539473055754e+00
1.306087453558159517e+01,3.994973814714212423e+00
1.308088025150042810e+01,4.062617881971442912e+00
1.310088596741926281e+01,4.089211560328447348e+00
1.312089168333809752e+01,4.182822057110207048e+00
1.314089739925693046e+01,3.821264306086449736e+00
1.316090311517576517e+01,4.547394223985854467e+00
1.318090883109459810e+01,3.566786012288636343e+00
1.320091454701343281e+01,3.930297969532412061e+00
1.322092026293226752e+01,3.634998538813212665e+00
1.324092597885110045e+01,4.255605752370277273e+00
1.326093169476993339e+01,3.934037390071633666e+00
1.328093741068876810e+01,3.856148978191322740e+00
1.330094312660760281e+01,3.577474016623238384e+00
1.332094884252643574e+01,4.520690562127343881e+00
1.334095455844527045e+01,3.785649131012967850e+00
1.336096027436410338e+01,4.399713678182776810e+00
1.338096599028293809e+01,3.353452947361310166e+00
1.340097170620177280e+01,3.501017604177265596e+00
1.342097742212060574e+01,3.584043421403684704e+00
1.344098313803944045e+01,3.972159198364543897e+00
1.346098885395827338e+01,3.594570368089553991e+00
1.348099456987710809e+01,4.563190262001424635e+00
1.350100028579594280e+01,3.992903737865935998e+00
1.352100600171477573e+01,4.258884484650860003e+00
1.354101171763361044e+01,3.423811982947472465e+00
1.356101743355244338e+01,3.222043603462297234e+00
1.358102314947127809e+01,3.838212491219361144e+00
1.360102886539011102e+01,3.388741997810071904e+00
1.362103458130894573e+01,4.108586775083349352e+00
1.364104029722777867e+01,4.000686154502980152e+00
1.366104601314661338e+01,4.355102284382100564e+00
1.368105172906544809e+01,4.339966098593071031e+00
1.370105744498428102e+01,3.856127163295377969e+00
1.372106316090311573e+01,4.612313389625954940e+00
1.374106887682194866e+01,3.994057042698124338e+00
1.376107459274078337e+01,3.912805475028357627e+00
1.378108030865961808e+01,3.989965575153820332e+00
1.380108602457845102e+01,3.920308791978071916e+00
1.382109174049728573e+01,4.397145163726846384e+00
1.384109745641611866e+01,3.806379472540132536e+00
1.386110317233495337e+01,3.761500230109005916e+00
1.388110888825378808e+01,3.051594122947810295e+00
1.390111460417262101e+01,4.405639931277546495e+00
1.392112032009145395e+01,3.731077495640764408e+00
1.394112603601028866e+01,4.108877940547387198e+00
1.396113175192912337e+01,4.234572926824420769e+00
1.398113746784795630e+01,3.427327460662899394e+00
1.400114318376679101e+01,3.405193245738809438e+00
1.402114889968562395e+01,3.889524986380864302e+00
1.404115461560445866e+01,3.844469797309732595e+00
1.406116033152329337e+01,3.069195622609237173e+00
1.408116604744212630e+01,4.116134122760076508e+00
1.410117176336095923e+01,3.907343987895407711e+00
1.412117747927979394e+01,3.344428397266014041e+00
1.414118319519862865e+01,3.353774372705724094e+00
1.416118891111746336e+01,3.039391102838989056e+00
1.418119462703629630e+01,3.303841616648341972e+00
1.420120034295512923e+01,4.330464555355719725e+00
1.422120605887396394e+01,4.107046673618906851e+00
1.424121177479279865e+01,4.088067628803003117e+00
1.426121749071163336e+01,4.627386157007434164e+00
1.428122320663046629e+01,4.108678980448923213e+00
1.430122892254929923e+01,3.647946496407882933e+00
1.432123463846813394e+01,3.930028303786540889e+00
1.434124035438696865e+01,3.980643112637156200e+00
1.436124607030580158e+01,4.603103729124758736e+00
1.438125178622463629e+01,3.848548562363723669e+00
1.440125750214346922e+01,4.118017823117775755e+00
1.442126321806230393e+01,3.219758241330679560e+00
1.444126893398113864e+01,3.313920718059705450e+00
1.446127464989997158e+01,3.918544396529247464e+00
1.448128036581880451e+01,3.864490020594972819e+00
1.450128608173763922e+01,4.077317247555320989e+00
1.452129179765647393e+01,4.131153599901105977e+00
1.454129751357530864e+01,3.900307899590358396e+00
1.456130322949414158e+01,3.699991839524587434e+00
1.458130894541297451e+01,4.480706514865324230e+00
1.460131466133180922e+01,3.272147031513914506e+00
1.462132037725064393e+01,3.998675529535699269e+00
1.464132609316947686e+01,3.387259692947438339e+00
1.466133180908831157e+01,3.501948591105853659e+00
1.468133752500714451e+01,3.904853801307844208e+00
1.470134324092597922e+01,3.701432790095148473e+00
1.472134895684481393e+01,4.520745079736473215e+00
1.474135467276364686e+01,3.606860399136865958e+00
1.476136038868247979e+01,3.432191360309376105e+00
1.478136610460131450e+01,4.086486166089579264e+00
1.480137182052014921e+01,3.071543336493904874e+00
1.482137753643898392e+01,3.868824855973358012e+00
1.484138325235781686e+01,3.742766488612856435e+00
1.486138896827664979e+01,3.941802254530707650e+00
1.488139468419548450e+01,3.673411314121254545e+00
1.490140040011431921e+01,3.690923520166374594e+00
1.492140611603315392e+01,4.263428350925077659e+00
1.494141183195198685e+01,3.978933881299083986e+00
1.496141754787081979e+01,4.181711254862076288e+00
1.498142326378965450e+01,3.787820997964485237e+00
1.500142897970848921e+01,3.830738073340006267e+00
1.502143469562732214e+01,4.383848395510435481e+00
1.504144041154615508e+01,4.162050651769884979e+00
1.506144612746498979e+01,4.751832826517556896e+00
1.508145184338382450e+01,4.181140745276308301e+00
1.510145755930265921e+01,3.924547873523562380e+00
1.512146327522149214e+01,4.582006565238762263e+00
1.514146899114032507e+01,4.290388448408021915e+00
1.516147470705915978e+01,4.723811555802837958e+00
1.518148042297799449e+01,3.681544309820541372e+00
1.520148613889682920e+01,4.215319842333408396e+00
1.522149185481566214e+01,4.803567254042969026e+00
1.524149757073449507e+01,4.097934367333229133e+00
1.526150328665332978e+01,4.204860888392209617e+00
1.528150900257216449e+01,4.338735102567772728e+00
1.530151471849099742e+01,4.650265242249898456e+00
1.532152043440983036e+01,4.908581017046241612e+00
1.534152615032866507e+01,5.168379086256045696e+00
1.536153186624749978e+01,4.754925264076153013e+00
1.538153758216633449e+01,4.977100459611536465e+00
1.540154329808516742e+01,4.514354251911289140e+00
1.542154901400400036e+01,5.302410528739807560e+00
1.544155472992283507e+01,4.802325828181275291e+00
1.546156044584166978e+01,4.656395597097400696e+00
1.548156616176050449e+01,5.161472762278038751e+00
1.550157187767933742e+01,4.932092305278283462e+00
1.552157759359817035e+01,5.252670680469314846e+00
1.554158330951700506e+01,5.535185425994709973e+00
1.556158902543583977e+01,6.102123562091087194e+00
1.558159474135467271e+01,5.694139975491031791e+00
1.560160045727350742e+01,6.182406440692358451e+00
1.562160617319234035e+01,6.062050549682988176e+00
1.564161188911117506e+01,5.967135433717517756e+00
1.566161760503000977e+01,6.236951579142475666e+00
1.568162332094884270e+01,6.256809209251023240e+00
1.570162903686767564e+01,6.564124971672251618e+00
1.572163475278651035e+01,7.603423754203968876e+00
1.574164046870534506e+01,6.307289504171266437e+00
1.576164618462417977e+01,7.405566152077195596e+00
1.578165190054301270e+01,7.306343277753491350e+00
1.580165761646184563e+01,7.737143981652724989e+00
1.582166333238068034e+01,7.171207116711304508e+00
1.584166904829951505e+01,7.418718988759470001e+00
1.586167476421834799e+01,7.622315970198117796e+00
1.588168048013718270e+01,7.395127926995695766e+00
1.590168619605601563e+01,7.424167674547600626e+00
1.592169191197485034e+01,8.141488374423587970e+00
1.594169762789368505e+01,7.922587686345007540e+00
1.596170334381251799e+01,9.203149917826948467e+00
1.598170905973135092e+01,8.482763374430771108e+00
1.600171477565018563e+01,8.930572990787549514e+00
1.602172049156902034e+01,9.654366766072179473e+00
1.604172620748785505e+01,9.478135781455826248e+00
1.606173192340668976e+01,9.941876059102643381e+00
1.608173763932552092e+01,9.941014035290670847e+00
1.610174335524435563e+01,9.963234760382801980e+00
1.612174907116319034e+01,1.083737160620410478e+01
1.614175478708202505e+01,1.123195205261962215e+01
1.616176050300085620e+01,1.090651714766367419e+01
1.618176621891969091e+01,1.187806517271532059e+01
1.620177193483852562e+01,1.200803049297486425e+01
1.622177765075736033e+01,1.142451042399292049e+01
1.624178336667619504e+01,1.255589122317278772e+01
1.626178908259502620e+01,1.241841926005598040e+01
1.628179479851386091e+01,1.297999671225131024e+01
1.630180051443269562e+01,1.335064331278987915e+01
1.632180623035153033e+01,1.336729001591662325e+01
1.634181194627036149e+01,1.419753453375339092e+01
1.636181766218919620e+01,1.438348835406197601e+01
1.638182337810803091e+01,1.408754472755882858e+01
1.640182909402686562e+01,1.611943564111292915e+01
1.642183480994570033e+01,1.540399616231097468e+01
1.644184052586453504e+01,1.637958366812907585e+01
1.646184624178336620e+01,1.619274468298206315e+01
1.648185195770220091e+01,1.687832917112463704e+01
1.650185767362103562e+01,1.719443164890953568e+01
1.652186338953986677e+01,1.775533858435474244e+01
1.654186910545870148e+01,1.824659135094525908e+01
1.656187482137753619e+01,1.839453637298461075e+01
1.658188053729637090e+01,1.886425241821851984e+01
1.660188625321520561e+01,1.949021295698713274e+01
1.662189196913404032e+01,2.001765176817013270e+01
1.664189768505287148e+01,2.054701642979551579e+01
1.666190340097170619e+01,2.068566071740917423e+01
1.668190911689054090e+01,2.164054347525173227e+01
1.670191483280937561e+01,2.152194905484093823e+01
1.672192054872820677e+01,2.174164551498403242e+01
1.674192626464704148e+01,2.215103914831288989e+01
1.676193198056587619e+01,2.366672031827670963e+01
1.678193769648471090e+01,2.353106815553448783e+01
1.680194341240354561e+01,2.411098598127252757e+01
1.682194912832238032e+01,2.385616793767233190e+01
1.684195484424121148e+01,2.435509976634861218e+01
1.686196056016004619e+01,2.473098414808327306e+01
1.688196627607888090e+01,2.469831513264065492e+01
1.690197199199771205e+01,2.594610629692523318e+01
1.692197770791654676e+01,2.461213943266670157e+01
1.694198342383538147e+01,2.508858606678511194e+01
1.696198913975421618e+01,2.435588607558903362e+01
1.698199485567305089e+01,2.371928347685931726e+01
1.700200057159188560e+01,2.342741590781112748e+01
1.702200628751071676e+01,2.327644663614935183e+01
1.704201200342955147e+01,2.231083781442651670e+01
1.706201771934838618e+01,2.155306200874935740e+01
1.708202343526722089e+01,2.024096884784697892e+01
1.710202915118605205e+01,1.960991929353928498e+01
1.712203486710488676e+01,1.916213895657948285e+01
1.714204058302372147e+01,1.705634760581253317e+01
1.716204629894255618e+01,1.622695339974059436e+01
1.718205201486139089e+01,1.551413459265008399e+01
1.720205773078022204e+01,1.372805404460811118e+01
1.722206344669905675e+01,1.220752410835365254e+01
1.724206916261789146e+01,1.108488876291739800e+01
1.726207487853672617e+01,1.043241172645545589e+01
1.728208059445555733e+01,9.244190087799326605e+00
1.730208631037439204e+01,8.813659294810824107e+00
1.732209202629322675e+01,8.195070571908821933e+00
1.734209774221206146e+01,7.754272448819108376e+00
1.736210345813089617e+01,7.126327334941107594e+00
1.738210917404973088e+01,7.286190287699250590e+00
1.740211488996856204e+01,7.141247675263020511e+00
1.742212060588739675e+01,5.730055777699168296e+00
1.744212632180623146e+01,5.815864441830769671e+00
1.746213203772506262e+01,6.310230118304442470e+00
1.748213775364389733e+01,6.776368212852471373e+00
1.750214346956273204e+01,6.160716858728990886e+00
1.752214918548156675e+01,5.977645693087722201e+00
1.754215490140040146e+01,5.982769692998159528e+00
1.756216061731923617e+01,5.160394246576547772e+00
1.758216633323806732e+01,6.264764334438286397e+00
1.760217204915690203e+01,5.527952991067511590e+00
1.762217776507573674e+01,6.026812793261976609e+00
1.764218348099457145e+01,6.025075907364980665e+00
1.766218919691340261e+01,6.298567469065138980e+00
1.768219491283223732e+01,5.714127957795944290e+00
1.770220062875107203e+01,5.415472494576390794e+00
1.772220634466990674e+01,6.194478699397881094e+00
1.774221206058874145e+01,6.554558238670180614e+00
1.776221777650757616e+01,6.644609156788156668e+00
1.778222349242640732e+01,6.518751115105276384e+00
1.780222920834524203e+01,6.825465307284199312e+00
1.782223492426407674e+01,6.936118321312367385e+00
1.784224064018290790e+01,6.426379275801941127e+00
1.786224635610174261e+01,7.630309545430392859e+00
1.788225207202057732e+01,7.626516579045117261e+00
1.790225778793941203e+01,7.312972414721107484e+00
1.792226350385824674e+01,6.545632672964108778e+00
1.794226921977708145e+01,7.636770677557431775e+00
1.796227493569591260e+01,7.780705008225930364e+00
