angle,intensity
1.000000000000000000e+01,9.228593742775882447e+01
1.002000571591883471e+01,9.973973058972822514e+01
1.004001143183766764e+01,9.951312557298309969e+01
1.006001714775650235e+01,9.893856007082951010e+01
1.008002286367533529e+01,9.862643755376910804e+01
1.010002857959417000e+01,9.806375738762295668e+01
1.012003429551300293e+01,9.708778119577821997e+01
1.014004001143183764e+01,9.661924696784332411e+01
1.016004572735067235e+01,9.434324936842375564e+01
1.018005144326950528e+01,9.325992643519970215e+01
1.020005715918833999e+01,9.189452069366532783e+01
1.022006287510717293e+01,8.946852767482758395e+01
1.024006859102600764e+01,8.725355701187901047e+01
1.026007430694484057e+01,8.505100504904748959e+01
1.028008002286367528e+01,8.249042468466336686e+01
1.030008573878250999e+01,7.928626686019890712e+01
1.032009145470134293e+01,7.692973400665661643e+01
1.034009717062017764e+01,7.251619221480135025e+01
1.036010288653901057e+01,6.924995806542246157e+01
1.038010860245784528e+01,6.633382030684870756e+01
1.040011431837667999e+01,6.316225794488545375e+01
1.042012003429551292e+01,6.027095282101299745e+01
1.044012575021434763e+01,5.689675580379611830e+01
1.046013146613318057e+01,5.376715142991683649e+01
1.048013718205201528e+01,5.090267159590386115e+01
1.050014289797084821e+01,4.888778528517894983e+01
1.052014861388968292e+01,4.692487484479360660e+01
1.054015432980851585e+01,4.408001445745123448e+01
1.056016004572735056e+01,4.217086276586758231e+01
1.058016576164618527e+01,4.095863225307972755e+01
1.060017147756501821e+01,3.981741707101794248e+01
1.062017719348385292e+01,3.780447252185404494e+01
1.064018290940268585e+01,3.668189053809362576e+01
1.066018862532152056e+01,3.593821047621197806e+01
1.068019434124035527e+01,3.626547354826589498e+01
1.070020005715918820e+01,3.520554347578841714e+01
1.072020577307802292e+01,3.420294039792503327e+01
1.074021148899685585e+01,3.500250926888084990e+01
1.076021720491569056e+01,3.350246825082953706e+01
1.078022292083452349e+01,3.382943676241510644e+01
1.080022863675335820e+01,3.321237833906634762e+01
1.082023435267219291e+01,3.352479635209210329e+01
1.084024006859102585e+01,3.363448202372730123e+01
1.086024578450986056e+01,3.274626832904274920e+01
1.088025150042869349e+01,3.347050456291039211e+01
1.090025721634752820e+01,3.268717068678331827e+01
1.092026293226636113e+01,3.236485279133546555e+01
1.094026864818519584e+01,3.290355313027230011e+01
1.096027436410403055e+01,3.241247312439544004e+01
1.098028008002286349e+01,3.341330197224193910e+01
1.100028579594169820e+01,3.321918500203882729e+01
1.102029151186053113e+01,3.233164148900216617e+01
1.104029722777936584e+01,3.331087256870208080e+01
1.106030294369819877e+01,3.342916676265702591e+01
1.108030865961703348e+01,3.251984767897498330e+01
1.110031437553586819e+01,3.345456301496945173e+01
1.112032009145470113e+01,3.289519450629953212e+01
1.114032580737353584e+01,3.329714080799620035e+01
1.116033152329236877e+01,3.348708460494287209e+01
1.118033723921120348e+01,3.397790787832545334e+01
1.120034295513003642e+01,3.514723325927924691e+01
1.122034867104887113e+01,3.456343675841701213e+01
1.124035438696770584e+01,3.521111146859562524e+01
1.126036010288653877e+01,3.609424418337139429e+01
1.128036581880537348e+01,3.607038472810479846e+01
1.130037153472420641e+01,3.604477484391150455e+01
1.132037725064304112e+01,3.621220000686753338e+01
1.134038296656187583e+01,3.684982664133269026e+01
1.136038868248070877e+01,3.790631748057322170e+01
1.138039439839954348e+01,3.807428675444730715e+01
1.140040011431837641e+01,3.756876753588542783e+01
1.142040583023721112e+01,3.894105975964287580e+01
1.144041154615604405e+01,3.878831658360022061e+01
1.146041726207487876e+01,3.850089679339895099e+01
1.148042297799371170e+01,3.975397353588353155e+01
1.150042869391254641e+01,3.924090184222944799e+01
1.152043440983138112e+01,4.109025531056526148e+01
1.154044012575021405e+01,4.088389297359051966e+01
1.156044584166904876e+01,4.059837066893356905e+01
1.158045155758788169e+01,4.155672127301893681e+01
1.160045727350671640e+01,4.120843119084919692e+01
1.162046298942555111e+01,4.150252132020138163e+01
1.164046870534438405e+01,4.193632043079439597e+01
1.166047442126321876e+01,4.177268560274684717e+01
1.168048013718205169e+01,4.142814907804333302e+01
1.170048585310088640e+01,4.115281392403146299e+01
1.172049156901971934e+01,4.123194959756573752e+01
1.174049728493855405e+01,4.146161724772554180e+01
1.176050300085738698e+01,4.157796148766773570e+01
1.178050871677622169e+01,4.140899477596205713e+01
1.180051443269505640e+01,3.977084167701764272e+01
1.182052014861388933e+01,3.892167238563784792e+01
1.184052586453272404e+01,3.901656170341514951e+01
1.186053158045155698e+01,3.817612465438152469e+01
1.188053729637039169e+01,3.680530043911979021e+01
1.190054301228922640e+01,3.563146186991711772e+01
1.192054872820805933e+01,3.510284029204181167e+01
1.194055444412689404e+01,3.394726415777726913e+01
1.196056016004572697e+01,3.327579335970440155e+01
1.198056587596456168e+01,3.220497307018462863e+01
1.200057159188339639e+01,3.063232416491640109e+01
1.202057730780222933e+01,2.807589079703723911e+01
1.204058302372106226e+01,2.724935283342071202e+01
1.206058873963989697e+01,2.616239583368589194e+01
1.208059445555873168e+01,2.444935185354199803e+01
1.210060017147756461e+01,2.313925118088877042e+01
1.212060588739639932e+01,2.214690093072890420e+01
1.214061160331523226e+01,2.107580100013591107e+01
1.216061731923406697e+01,2.022629963592064328e+01
1.218062303515290168e+01,1.883288632106194527e+01
1.220062875107173461e+01,1.784706437262568457e+01
1.222063446699056932e+01,1.658102091357624985e+01
1.224064018290940226e+01,1.542863777043356066e+01
1.226064589882823697e+01,1.516243567851540952e+01
1.228065161474707168e+01,1.450336413064696828e+01
1.230065733066590461e+01,1.307360841971086529e+01
1.232066304658473754e+01,1.313054034147524618e+01
1.234066876250357225e+01,1.252701437355918301e+01
1.236067447842240696e+01,1.183630969365032648e+01
1.238068019434123990e+01,1.243649217097797788e+01
1.240068591026007461e+01,1.131500343053131274e+01
1.242069162617890754e+01,1.177764744398904639e+01
1.244069734209774225e+01,1.023320742351108592e+01
1.246070305801657696e+01,1.044948630856962168e+01
1.248070877393540989e+01,1.027617660459691429e+01
1.250071448985424460e+01,9.739803290837166116e+00
1.252072020577307754e+01,9.563156104876977537e+00
1.254072592169191225e+01,8.889839241075431886e+00
1.256073163761074696e+01,8.956784267890599338e+00
1.258073735352957989e+01,7.897512073630050367e+00
1.260074306944841460e+01,8.824068928420061297e+00
1.262074878536724754e+01,8.432722942761380125e+00
1.264075450128608225e+01,7.314650763610686113e+00
1.266076021720491518e+01,7.473344451596455329e+00
1.268076593312374989e+01,7.726141541149601721e+00
1.270077164904258282e+01,6.477687448076877352e+00
1.272077736496141753e+01,7.481648903248260041e+00
1.274078308088025224e+01,5.911315931553383862e+00
1.276078879679908518e+01,5.901736241393022553e+00
1.278079451271791989e+01,6.201622971759634950e+00
1.280080022863675282e+01,6.465992600865700268e+00
1.282080594455558753e+01,6.792583735597716554e+00
1.284081166047442224e+01,6.609145470179488946e+00
1.286081737639325517e+01,6.247501734375163984e+00
1.288082309231208988e+01,6.093671549211140182e+00
1.290082880823092282e+01,6.254460407040230763e+00
1.292083452414975753e+01,5.859355436240885950e+00
1.294084024006859224e+01,5.275909252045613229e+00
1.296084595598742517e+01,5.357445940876225166e+00
1.298085167190625810e+01,5.753776373730356219e+00
1.300085738782509281e+01,5.223357161265742121e+00
1.302086310374392752e+01,5.162891224925454381e+00
1.304086881966276046e+01,5.096169455723853048e+00
1.306087453558159517e+01,5.373911404887831367e+00
1.308088025150042810e+01,4.498101010080808315e+00
1.310088596741926281e+01,5.879882815520425687e+00
1.312089168333809752e+01,5.112030819924337166e+00
1.314089739925693046e+01,5.269928648655939796e+00
1.316090311517576517e+01,5.919211092421464038e+00
1.318090883109459810e+01,5.796080662942983075e+00
1.320091454701343281e+01,4.892593545316501924e+00
1.322092026293226752e+01,4.942320998934372156e+00
1.324092597885110045e+01,4.387854866420878963e+00
1.326093169476993339e+01,5.291886532512149799e+00
1.328093741068876810e+01,5.492560433341353132e+00
1.330094312660760281e+01,5.140511995167788228e+00
1.332094884252643574e+01,4.607011149114241810e+00
1.334095455844527045e+01,5.260879434029407165e+00
1.336096027436410338e+01,5.040525643228754404e+00
1.338096599028293809e+01,4.819107674101272387e+00
1.340097170620177280e+01,4.108587268846522811e+00
1.342097742212060574e+01,4.849021500076341695e+00
1.344098313803944045e+01,4.709330243793869997e+00
1.346098885395827338e+01,5.190944718890190046e+00
1.348099456987710809e+01,5.073614238678468169e+00
1.350100028579594280e+01,4.729661911280121700e+00
1.352100600171477573e+01,4.395268021975855532e+00
1.354101171763361044e+01,4.470273966888530737e+00
1.356101743355244338e+01,4.373677090979962045e+00
1.358102314947127809e+01,4.369746987018609197e+00
1.360102886539011102e+01,4.384763792348564948e+00
1.362103458130894573e+01,5.093903638302045067e+00
1.364104029722777867e+01,4.004819841691089621e+00
1.366104601314661338e+01,4.926456335078462700e+00
1.368105172906544809e+01,3.887569940386942591e+00
1.370105744498428102e+01,4.193544819753610042e+00
1.372106316090311573e+01,4.554091362280851207e+00
1.374106887682194866e+01,4.254232807126589577e+00
1.376107459274078337e+01,4.585440295014949541e+00
1.378108030865961808e+01,4.859357500182303724e+00
1.380108602457845102e+01,5.256444456270426002e+00
1.382109174049728573e+01,3.654445125317668630e+00
1.384109745641611866e+01,4.265060578433307548e+00
1.386110317233495337e+01,4.176186097952896858e+00
1.388110888825378808e+01,4.801868655965316535e+00
1.390111460417262101e+01,4.401914315078000683e+00
1.392112032009145395e+01,4.693473234556379658e+00
1.394112603601028866e+01,4.218024646944614986e+00
1.396113175192912337e+01,3.927201990891894923e+00
1.398113746784795630e+01,4.900559103574892106e+00
1.400114318376679101e+01,4.535488246847814153e+00
1.402114889968562395e+01,4.665080442331699828e+00
1.404115461560445866e+01,4.140217451922147518e+00
1.406116033152329337e+01,3.754035755782913153e+00
1.408116604744212630e+01,4.341396633276352723e+00
1.410117176336095923e+01,4.745087007214693564e+00
1.412117747927979394e+01,4.816376580359256643e+00
1.414118319519862865e+01,4.103909809544992626e+00
1.416118891111746336e+01,4.848028182885983028e+00
1.418119462703629630e+01,4.548826759103158146e+00
1.420120034295512923e+01,4.351171642867504019e+00
1.422120605887396394e+01,4.825937894216472124e+00
1.424121177479279865e+01,4.812692934230980768e+00
1.426121749071163336e+01,3.957953808659336659e+00
1.428122320663046629e+01,3.648313706718340210e+00
1.430122892254929923e+01,4.372470362159910806e+00
1.432123463846813394e+01,4.485563901277553889e+00
1.434124035438696865e+01,5.144305402627042056e+00
1.436124607030580158e+01,3.829916545914440640e+00
1.438125178622463629e+01,4.844287774669039592e+00
1.440125750214346922e+01,3.812149428965214693e+00
1.442126321806230393e+01,5.077811851719758351e+00
1.444126893398113864e+01,4.730861874656854482e+00
1.446127464989997158e+01,4.374236740795105050e+00
1.448128036581880451e+01,4.818972461953734410e+00
1.450128608173763922e+01,4.476182222184764470e+00
1.452129179765647393e+01,4.678577059890712597e+00
1.454129751357530864e+01,4.489760056061263604e+00
1.456130322949414158e+01,4.426043472285843272e+00
1.458130894541297451e+01,4.754853752554629054e+00
1.460131466133180922e+01,4.019987268249646029e+00
1.462132037725064393e+01,3.704949982264663433e+00
1.464132609316947686e+01,3.952502680231411158e+00
1.466133180908831157e+01,3.965963050483090946e+00
1.468133752500714451e+01,5.063150381456398286e+00
1.470134324092597922e+01,4.453623529976000306e+00
1.472134895684481393e+01,4.411998944041780391e+00
1.474135467276364686e+01,4.396501613499780525e+00
1.476136038868247979e+01,4.619687782857694103e+00
1.478136610460131450e+01,4.604366619063479327e+00
1.480137182052014921e+01,4.932952614006691050e+00
1.482137753643898392e+01,4.512936416213994661e+00
1.484138325235781686e+01,4.829028957218793217e+00
1.486138896827664979e+01,4.936592428713815650e+00
1.488139468419548450e+01,5.355384098304529772e+00
1.490140040011431921e+01,5.172796387472088142e+00
1.492140611603315392e+01,4.713356160089920976e+00
1.494141183195198685e+01,5.245951055567447341e+00
1.496141754787081979e+01,5.001195484025404703e+00
1.498142326378965450e+01,5.574831169402994391e+00
1.500142897970848921e+01,5.131026399356633405e+00
1.502143469562732214e+01,5.253612549195376680e+00
1.504144041154615508e+01,5.074575202175056532e+00
1.506144612746498979e+01,4.889990438191224698e+00
1.508145184338382450e+01,5.180714881895667645e+00
1.510145755930265921e+01,5.056822044482913725e+00
1.512146327522149214e+01,5.552865966554695554e+00
1.514146899114032507e+01,6.437841754878286693e+00
1.516147470705915978e+01,5.855270593176007843e+00
1.518148042297799449e+01,5.882569656177397910e+00
1.520148613889682920e+01,5.255782205748637637e+00
1.522149185481566214e+01,6.546235923486229069e+00
1.524149757073449507e+01,6.870435612216491350e+00
1.526150328665332978e+01,6.586924211902789317e+00
1.528150900257216449e+01,5.984641724757294057e+00
1.530151471849099742e+01,6.491229108796436442e+00
1.532152043440983036e+01,6.676534061871272741e+00
1.534152615032866507e+01,6.783611554401312915e+00
1.536153186624749978e+01,7.000213943164762753e+00
1.538153758216633449e+01,7.386779242472458762e+00
1.540154329808516742e+01,7.488302433909716171e+00
1.542154901400400036e+01,7.266295798466126499e+00
1.544155472992283507e+01,8.156365197214359597e+00
1.546156044584166978e+01,7.897957753885265220e+00
1.548156616176050449e+01,7.943220794426322229e+00
1.550157187767933742e+01,8.301005695828997943e+00
1.552157759359817035e+01,8.232620081052113292e+00
1.554158330951700506e+01,8.237118808811835891e+00
1.556158902543583977e+01,8.485349497115137751e+00
1.558159474135467271e+01,9.533240394353953207e+00
1.560160045727350742e+01,9.294609718120824482e+00
1.562160617319234035e+01,9.301969635431339256e+00
1.564161188911117506e+01,8.935563020292310199e+00
1.566161760503000977e+01,9.436460088108646005e+00
1.568162332094884270e+01,1.058432254667900452e+01
1.570162903686767564e+01,1.057963707540022469e+01
1.572163475278651035e+01,1.075695693799174180e+01
1.574164046870534506e+01,1.081765516843558217e+01
1.576164618462417977e+01,1.090592052819545188e+01
1.578165190054301270e+01,1.182153508416692489e+01
1.580165761646184563e+01,1.121502030251692261e+01
1.582166333238068034e+01,1.119542042486709654e+01
1.584166904829951505e+01,1.133393040273581853e+01
1.586167476421834799e+01,1.223913032388316502e+01
1.588168048013718270e+01,1.297538520628224035e+01
1.590168619605601563e+01,1.286018764653796609e+01
1.592169191197485034e+01,1.285785894513249339e+01
1.594169762789368505e+01,1.325557985969011732e+01
1.596170334381251799e+01,1.303954058448340980e+01
1.598170905973135092e+01,1.383910425516871712e+01
1.600171477565018563e+01,1.357477692578826911e+01
1.602172049156902034e+01,1.490742491718961205e+01
1.604172620748785505e+01,1.541372063293117733e+01
1.606173192340668976e+01,1.580819456499298070e+01
1.608173763932552092e+01,1.561347881221817957e+01
1.610174335524435563e+01,1.627816077424601460e+01
1.612174907116319034e+01,1.653829074478674599e+01
1.614175478708202505e+01,1.716195327142055760e+01
1.616176050300085620e+01,1.724521377561392654e+01
1.618176621891969091e+01,1.866391788625130843e+01
1.620177193483852562e+01,1.892460195636108367e+01
1.622177765075736033e+01,1.874196985492738321e+01
1.624178336667619504e+01,1.870775426296596322e+01
1.626178908259502620e+01,1.907331319197168895e+01
1.628179479851386091e+01,1.968089435340695559e+01
1.630180051443269562e+01,2.097587515235758104e+01
1.632180623035153033e+01,2.188758954698528214e+01
1.634181194627036149e+01,2.180313520465093191e+01
1.636181766218919620e+01,2.249762319107679076e+01
1.638182337810803091e+01,2.313817628730606657e+01
1.640182909402686562e+01,2.381637487288736565e+01
1.642183480994570033e+01,2.388008468184336053e+01
1.644184052586453504e+01,2.362798651855769094e+01
1.646184624178336620e+01,2.475143875825570206e+01
1.648185195770220091e+01,2.545769395916996558e+01
1.650185767362103562e+01,2.598083792489643429e+01
1.652186338953986677e+01,2.693722712333848079e+01
1.654186910545870148e+01,2.708081753492249533e+01
1.656187482137753619e+01,2.729241785693557176e+01
1.658188053729637090e+01,2.752053846493698330e+01
1.660188625321520561e+01,2.861284445592832881e+01
1.662189196913404032e+01,2.823420974750820278e+01
1.664189768505287148e+01,2.806996508640072108e+01
1.666190340097170619e+01,2.946974650158037079e+01
1.668190911689054090e+01,2.839588724492153204e+01
1.670191483280937561e+01,2.888720861004481932e+01
1.672192054872820677e+01,2.863520487195112452e+01
1.674192626464704148e+01,2.810727255084022858e+01
1.676193198056587619e+01,2.794544118128984422e+01
1.678193769648471090e+01,2.775177924051113365e+01
1.680194341240354561e+01,2.775945948079639436e+01
1.682194912832238032e+01,2.699194976253509992e+01
1.684195484424121148e+01,2.594464588719542775e+01
1.686196056016004619e+01,2.580986866189101647e+01
1.688196627607888090e+01,2.491264462236069122e+01
1.690197199199771205e+01,2.378985579921510052e+01
1.692197770791654676e+01,2.310249164719007098e+01
1.694198342383538147e+01,2.231207854015788783e+01
1.696198913975421618e+01,2.162396147635895005e+01
1.698199485567305089e+01,2.087130965120134363e+01
1.700200057159188560e+01,2.031060410395065219e+01
1.702200628751071676e+01,1.972248199195008311e+01
1.704201200342955147e+01,1.859684919840020001e+01
1.706201771934838618e+01,1.760262104516851878e+01
1.708202343526722089e+01,1.653731903871739206e+01
1.710202915118605205e+01,1.711286277332789396e+01
1.712203486710488676e+01,1.523196921540094806e+01
1.714204058302372147e+01,1.492870520480598984e+01
1.716204629894255618e+01,1.474316773951689186e+01
1.718205201486139089e+01,1.485395692097163334e+01
1.720205773078022204e+01,1.426647312250600663e+01
1.722206344669905675e+01,1.350250722127506187e+01
1.724206916261789146e+01,1.352569704229889069e+01
1.726207487853672617e+01,1.337778738739725704e+01
1.728208059445555733e+01,1.341479481389827910e+01
1.730208631037439204e+01,1.215873295537076615e+01
1.732209202629322675e+01,1.217737606567907704e+01
1.734209774221206146e+01,1.244401168839059224e+01
1.736210345813089617e+01,1.115741049080919467e+01
1.738210917404973088e+01,1.172475491935018965e+01
1.740211488996856204e+01,1.124403652682495647e+01
1.742212060588739675e+01,1.086360032128024855e+01
1.744212632180623146e+01,1.145247714563721075e+01
1.746213203772506262e+01,1.074134707628513041e+01
1.748213775364389733e+01,1.031891234623152442e+01
1.750214346956273204e+01,1.107684042683955639e+01
1.752214918548156675e+01,1.066620971208069157e+01
1.754215490140040146e+01,9.680450778333037576e+00
1.756216061731923617e+01,1.040609276040736830e+01
1.758216633323806732e+01,1.002514544529112861e+01
1.760217204915690203e+01,1.037118938298923254e+01
1.762217776507573674e+01,9.450032204459205332e+00
1.764218348099457145e+01,1.042309344214548616e+01
1.766218919691340261e+01,1.008448753657133423e+01
1.768219491283223732e+01,1.036760650382680993e+01
1.770220062875107203e+01,1.057087645123145059e+01
1.772220634466990674e+01,1.019775339356761101e+01
1.774221206058874145e+01,1.105620087093981141e+01
1.776221777650757616e+01,1.108110052249764799e+01
1.778222349242640732e+01,1.097271846417351782e+01
1.780222920834524203e+01,1.132349785953217847e+01
1.782223492426407674e+01,1.103956168774150370e+01
1.784224064018290790e+01,1.091173823290682066e+01
1.786224635610174261e+01,1.200757688474444507e+01
1.788225207202057732e+01,1.150348088170534133e+01
1.790225778793941203e+01,1.254059568909860545e+01
1.792226350385824674e+01,1.181102403292652880e+01
1.794226921977708145e+01,1.260791472787373024e+01
1.796227493569591260e+01,1.180399712922033650e+01
