angle,intensity
1.000000000000000000e+01,2.575068783539740735e+01
1.002000571591883471e+01,2.632106515978041017e+01
1.004001143183766764e+01,2.731251857036806641e+01
1.006001714775650235e+01,2.821254399065879426e+01
1.008002286367533529e+01,2.857293725680764851e+01
1.010002857959417000e+01,2.890460889889800811e+01
1.012003429551300293e+01,2.949057502096643901e+01
1.014004001143183764e+01,3.029247829265761993e+01
1.016004572735067235e+01,3.072097856801848792e+01
1.018005144326950528e+01,3.148391725644205508e+01
1.020005715918833999e+01,3.193195350222519835e+01
1.022006287510717293e+01,3.258250131629259272e+01
1.024006859102600764e+01,3.300171090211804881e+01
1.026007430694484057e+01,3.385927640757326174e+01
1.028008002286367528e+01,3.534839622065373987e+01
1.030008573878250999e+01,3.580779591990027200e+01
1.032009145470134293e+01,3.666321947419726257e+01
1.034009717062017764e+01,3.717703782582371730e+01
1.036010288653901057e+01,3.870441389684083333e+01
1.038010860245784528e+01,3.894741052058598996e+01
1.040011431837667999e+01,3.971402264256714432e+01
1.042012003429551292e+01,4.074777790873883987e+01
1.044012575021434763e+01,4.188243685519885418e+01
1.046013146613318057e+01,4.271332490813833971e+01
1.048013718205201528e+01,4.371502455426787037e+01
1.050014289797084821e+01,4.447691172155934680e+01
1.052014861388968292e+01,4.544866347798893003e+01
1.054015432980851585e+01,4.630094142675844182e+01
1.056016004572735056e+01,4.781230232812963266e+01
1.058016576164618527e+01,4.881114018025265011e+01
1.060017147756501821e+01,4.919856259557610656e+01
1.062017719348385292e+01,4.986880794205333700e+01
1.064018290940268585e+01,5.228611601075297699e+01
1.066018862532152056e+01,5.304569497919153775e+01
1.068019434124035527e+01,5.384014616811701615e+01
1.070020005715918820e+01,5.400636232930760627e+01
1.072020577307802292e+01,5.642902762456858312e+01
1.074021148899685585e+01,5.718599545404467221e+01
1.076021720491569056e+01,5.879437290283459561e+01
1.078022292083452349e+01,5.919085907046888906e+01
1.080022863675335820e+01,6.045273501566650509e+01
1.082023435267219291e+01,6.130896717912077065e+01
1.084024006859102585e+01,6.331067985334745174e+01
1.086024578450986056e+01,6.487903656571458555e+01
1.088025150042869349e+01,6.586229083204973733e+01
1.090025721634752820e+01,6.801550748500932286e+01
1.092026293226636113e+01,6.860379791943609007e+01
1.094026864818519584e+01,7.018990657512358666e+01
1.096027436410403055e+01,7.168816022022774348e+01
1.098028008002286349e+01,7.273738893998006461e+01
1.100028579594169820e+01,7.468677159565314128e+01
1.102029151186053113e+01,7.636141044288186208e+01
1.104029722777936584e+01,7.785300610151557521e+01
1.106030294369819877e+01,7.966882202039207073e+01
1.108030865961703348e+01,8.072493984647982757e+01
1.110031437553586819e+01,8.237758511146482476e+01
1.112032009145470113e+01,8.355135654421457048e+01
1.114032580737353584e+01,8.468874066233122733e+01
1.116033152329236877e+01,8.625689037529997449e+01
1.118033723921120348e+01,8.897133943239219889e+01
1.120034295513003642e+01,9.004570543181111475e+01
1.122034867104887113e+01,9.154927178333559823e+01
1.124035438696770584e+01,9.318030515002318737e+01
1.126036010288653877e+01,9.416753541221595469e+01
1.128036581880537348e+01,9.561423534175858663e+01
1.130037153472420641e+01,9.637520471232073760e+01
1.132037725064304112e+01,9.712721712770434124e+01
1.134038296656187583e+01,9.855924401621899733e+01
1.136038868248070877e+01,9.866354592216302422e+01
1.138039439839954348e+01,9.947908354988295798e+01
1.140040011431837641e+01,9.952744906454320528e+01
1.142040583023721112e+01,9.939516905943030167e+01
1.144041154615604405e+01,9.971860139206918916e+01
1.146041726207487876e+01,9.974077612885810140e+01
1.148042297799371170e+01,9.749735362619527734e+01
1.150042869391254641e+01,9.666039455611793585e+01
1.152043440983138112e+01,9.581224478352874030e+01
1.154044012575021405e+01,9.308054900857277403e+01
1.156044584166904876e+01,9.129838954523481220e+01
1.158045155758788169e+01,8.847591044446785702e+01
1.160045727350671640e+01,8.505334416951549770e+01
1.162046298942555111e+01,8.095583720939974626e+01
1.164046870534438405e+01,7.788735539675121800e+01
1.166047442126321876e+01,7.339836386813445301e+01
1.168048013718205169e+01,6.754585744731218711e+01
1.170048585310088640e+01,6.304584730787648539e+01
1.172049156901971934e+01,5.786567916765457653e+01
1.174049728493855405e+01,5.358966055141505080e+01
1.176050300085738698e+01,4.903157290601761531e+01
1.178050871677622169e+01,4.356664409630704426e+01
1.180051443269505640e+01,4.032268482654745867e+01
1.182052014861388933e+01,3.672389334540019945e+01
1.184052586453272404e+01,3.343724065109603316e+01
1.186053158045155698e+01,3.003532031503465305e+01
1.188053729637039169e+01,2.718567756633191834e+01
1.190054301228922640e+01,2.542213838394694037e+01
1.192054872820805933e+01,2.304588687845208739e+01
1.194055444412689404e+01,2.231546190728734302e+01
1.196056016004572697e+01,2.055729036709421820e+01
1.198056587596456168e+01,1.979324770387517063e+01
1.200057159188339639e+01,1.916259744132371168e+01
1.202057730780222933e+01,1.853201815142265829e+01
1.204058302372106226e+01,1.833378757222569533e+01
1.206058873963989697e+01,1.813162969031799321e+01
1.208059445555873168e+01,1.696319117665196430e+01
1.210060017147756461e+01,1.793711016160633775e+01
1.212060588739639932e+01,1.684287341269321558e+01
1.214061160331523226e+01,1.736399188083914424e+01
1.216061731923406697e+01,1.750770163312437333e+01
1.218062303515290168e+01,1.840678707754371146e+01
1.220062875107173461e+01,1.739240311137409023e+01
1.222063446699056932e+01,1.708676644909184006e+01
1.224064018290940226e+01,1.807834545900259116e+01
1.226064589882823697e+01,1.777669621723103432e+01
1.228065161474707168e+01,1.901388154429709587e+01
1.230065733066590461e+01,1.916019399173767823e+01
1.232066304658473754e+01,1.822452528182090248e+01
1.234066876250357225e+01,2.001836502968167508e+01
1.236067447842240696e+01,2.007803409241516235e+01
1.238068019434123990e+01,2.014765601364517522e+01
1.240068591026007461e+01,1.995204596051241452e+01
1.242069162617890754e+01,1.966849515488840439e+01
1.244069734209774225e+01,1.989617580591939827e+01
1.246070305801657696e+01,2.090184349090971594e+01
1.248070877393540989e+01,2.131879856168618659e+01
1.250071448985424460e+01,2.154038543525485494e+01
1.252072020577307754e+01,2.251212936126241715e+01
1.254072592169191225e+01,2.154663321125259046e+01
1.256073163761074696e+01,2.291234061037406633e+01
1.258073735352957989e+01,2.232450968033636229e+01
1.260074306944841460e+01,2.346514308964930962e+01
1.262074878536724754e+01,2.413934544972644503e+01
1.264075450128608225e+01,2.450390932138741817e+01
1.266076021720491518e+01,2.428046237157290932e+01
1.268076593312374989e+01,2.473023399135637845e+01
1.270077164904258282e+01,2.531069440046449870e+01
1.272077736496141753e+01,2.562087827283690444e+01
1.274078308088025224e+01,2.724101234775838520e+01
1.276078879679908518e+01,2.643547549734533320e+01
1.278079451271791989e+01,2.729121039758030420e+01
1.280080022863675282e+01,2.734785017184488254e+01
1.282080594455558753e+01,2.838329311679517986e+01
1.284081166047442224e+01,2.905296083933960105e+01
1.286081737639325517e+01,2.920039009849167400e+01
1.288082309231208988e+01,3.016065378084500281e+01
1.290082880823092282e+01,3.032469361184321599e+01
1.292083452414975753e+01,3.131743201814020239e+01
1.294084024006859224e+01,3.197531758927510381e+01
1.296084595598742517e+01,3.227878016420974916e+01
1.298085167190625810e+01,3.312947019736760268e+01
1.300085738782509281e+01,3.379505323912340486e+01
1.302086310374392752e+01,3.409733054584030754e+01
1.304086881966276046e+01,3.526143081001163893e+01
1.306087453558159517e+01,3.500594450219033860e+01
1.308088025150042810e+01,3.665109602251541787e+01
1.310088596741926281e+01,3.634620008695539894e+01
1.312089168333809752e+01,3.770412116918686252e+01
1.314089739925693046e+01,3.762474789781748541e+01
1.316090311517576517e+01,3.759215258007233729e+01
1.318090883109459810e+01,3.880751450477063713e+01
1.320091454701343281e+01,3.840702284670685174e+01
1.322092026293226752e+01,3.989333401928850265e+01
1.324092597885110045e+01,3.907134509070363038e+01
1.326093169476993339e+01,4.009615177926721685e+01
1.328093741068876810e+01,3.925524880934892735e+01
1.330094312660760281e+01,4.009809309731068083e+01
1.332094884252643574e+01,3.986442705829302469e+01
1.334095455844527045e+01,3.934648769443921879e+01
1.336096027436410338e+01,3.928638301733569449e+01
1.338096599028293809e+01,3.846954568119207352e+01
1.340097170620177280e+01,3.610634517763039497e+01
1.342097742212060574e+01,3.523348793603082640e+01
1.344098313803944045e+01,3.433052131814407915e+01
1.346098885395827338e+01,3.373364360118658567e+01
1.348099456987710809e+01,3.182974358367038192e+01
1.350100028579594280e+01,3.011857965545588200e+01
1.352100600171477573e+01,2.891583901860901307e+01
1.354101171763361044e+01,2.693949515219768642e+01
1.356101743355244338e+01,2.435300932122689588e+01
1.358102314947127809e+01,2.320257468316501104e+01
1.360102886539011102e+01,2.119734706342787689e+01
1.362103458130894573e+01,1.988666153811788817e+01
1.364104029722777867e+01,1.831853840511542941e+01
1.366104601314661338e+01,1.696489129626865733e+01
1.368105172906544809e+01,1.485278683255343424e+01
1.370105744498428102e+01,1.326141756726292620e+01
1.372106316090311573e+01,1.256725350598254920e+01
1.374106887682194866e+01,1.205371573957621756e+01
1.376107459274078337e+01,1.123233275169118173e+01
1.378108030865961808e+01,9.285570265611537977e+00
1.380108602457845102e+01,9.467089271718753807e+00
1.382109174049728573e+01,8.519166637564495659e+00
1.384109745641611866e+01,7.406266804509353818e+00
1.386110317233495337e+01,7.491724045212020400e+00
1.388110888825378808e+01,7.880274323800319891e+00
1.390111460417262101e+01,6.819205940400064669e+00
1.392112032009145395e+01,6.437401757514016332e+00
1.394112603601028866e+01,5.515206107847666850e+00
1.396113175192912337e+01,5.708689091163162033e+00
1.398113746784795630e+01,5.845533519760743424e+00
1.400114318376679101e+01,6.058042941944451698e+00
1.402114889968562395e+01,4.875687014141405484e+00
1.404115461560445866e+01,5.907768590079946591e+00
1.406116033152329337e+01,4.754877639579451198e+00
1.408116604744212630e+01,5.597650380891255217e+00
1.410117176336095923e+01,5.924157170040926346e+00
1.412117747927979394e+01,4.455929137233403559e+00
1.414118319519862865e+01,5.535322395583643029e+00
1.416118891111746336e+01,5.649621896489636974e+00
1.418119462703629630e+01,5.055730523530671761e+00
1.420120034295512923e+01,4.829440184419320659e+00
1.422120605887396394e+01,4.802871106857345751e+00
1.424121177479279865e+01,5.051701935127891119e+00
1.426121749071163336e+01,5.111612842379897437e+00
1.428122320663046629e+01,4.385235187872279283e+00
1.430122892254929923e+01,4.762903438691168390e+00
1.432123463846813394e+01,4.154001018681271695e+00
1.434124035438696865e+01,4.688772120847983338e+00
1.436124607030580158e+01,4.669259001144041576e+00
1.438125178622463629e+01,4.508580543235183313e+00
1.440125750214346922e+01,4.191098155105363432e+00
1.442126321806230393e+01,4.038996300840091536e+00
1.444126893398113864e+01,3.974543839593136951e+00
1.446127464989997158e+01,3.231758952993637024e+00
1.448128036581880451e+01,3.890236743933323194e+00
1.450128608173763922e+01,3.590120275331755373e+00
1.452129179765647393e+01,4.005911628907497857e+00
1.454129751357530864e+01,3.744218555550225425e+00
1.456130322949414158e+01,3.884534640488048751e+00
1.458130894541297451e+01,3.368049667590561569e+00
1.460131466133180922e+01,3.390450467108351074e+00
1.462132037725064393e+01,3.919567630687639692e+00
1.464132609316947686e+01,3.704594677015020210e+00
1.466133180908831157e+01,2.910996038568326671e+00
1.468133752500714451e+01,3.890083890684942425e+00
1.470134324092597922e+01,3.433242778350118041e+00
1.472134895684481393e+01,3.325931898509413287e+00
1.474135467276364686e+01,3.320463594064791746e+00
1.476136038868247979e+01,2.864427147562194076e+00
1.478136610460131450e+01,3.839508716732735749e+00
1.480137182052014921e+01,3.337039099939303810e+00
1.482137753643898392e+01,3.702842559845400672e+00
1.484138325235781686e+01,3.426480328172887724e+00
1.486138896827664979e+01,2.814450130575104847e+00
1.488139468419548450e+01,3.459209955366480571e+00
1.490140040011431921e+01,3.382429591971841454e+00
1.492140611603315392e+01,3.460680289158283962e+00
1.494141183195198685e+01,3.369330651960401823e+00
1.496141754787081979e+01,3.977133936557348370e+00
1.498142326378965450e+01,2.630528702709851174e+00
1.500142897970848921e+01,3.836745630945393337e+00
1.502143469562732214e+01,2.778070559422436858e+00
1.504144041154615508e+01,3.233343671656263574e+00
1.506144612746498979e+01,3.601996991152365268e+00
1.508145184338382450e+01,2.887316482514828309e+00
1.510145755930265921e+01,3.541637366957613331e+00
1.512146327522149214e+01,3.287634724541143694e+00
1.514146899114032507e+01,3.546457972684056159e+00
1.516147470705915978e+01,3.201867605971071562e+00
1.518148042297799449e+01,3.073261651866064703e+00
1.520148613889682920e+01,3.624870106429797900e+00
1.522149185481566214e+01,3.508822456125661571e+00
1.524149757073449507e+01,2.831861814201598548e+00
1.526150328665332978e+01,3.304783784787701073e+00
1.528150900257216449e+01,3.123737375646435943e+00
1.530151471849099742e+01,3.753415515197517038e+00
1.532152043440983036e+01,3.263450105296307413e+00
1.534152615032866507e+01,3.841309018298170397e+00
1.536153186624749978e+01,2.527642101214936154e+00
1.538153758216633449e+01,3.359174756704367937e+00
1.540154329808516742e+01,3.694619979744814486e+00
1.542154901400400036e+01,3.469635400610126652e+00
1.544155472992283507e+01,3.551674392819611725e+00
1.546156044584166978e+01,3.367495100885084636e+00
1.548156616176050449e+01,3.716927371966811222e+00
1.550157187767933742e+01,3.847294564264597483e+00
1.552157759359817035e+01,3.352505004297614555e+00
1.554158330951700506e+01,2.910900321237340549e+00
1.556158902543583977e+01,3.723991640454331176e+00
1.558159474135467271e+01,3.797124430466317868e+00
1.560160045727350742e+01,3.959687248095447920e+00
1.562160617319234035e+01,3.552922545647550834e+00
1.564161188911117506e+01,2.995359106945971739e+00
1.566161760503000977e+01,2.564336083265431387e+00
1.568162332094884270e+01,2.982009590625116946e+00
1.570162903686767564e+01,3.024052741560833368e+00
1.572163475278651035e+01,3.600791434934489388e+00
1.574164046870534506e+01,2.847194712626551549e+00
1.576164618462417977e+01,3.556451250080359117e+00
1.578165190054301270e+01,3.029368274375067394e+00
1.580165761646184563e+01,3.156331802800932618e+00
1.582166333238068034e+01,2.631289907923400229e+00
1.584166904829951505e+01,3.406639638805917691e+00
1.586167476421834799e+01,3.949391402249577965e+00
1.588168048013718270e+01,2.491091706017760643e+00
1.590168619605601563e+01,3.265241217488580983e+00
1.592169191197485034e+01,2.629038888113782058e+00
1.594169762789368505e+01,3.447483827421384817e+00
1.596170334381251799e+01,3.439549923512634777e+00
1.598170905973135092e+01,2.526133697952897439e+00
1.600171477565018563e+01,2.705914129496000076e+00
1.602172049156902034e+01,2.756548111900404052e+00
1.604172620748785505e+01,3.022619787946966952e+00
1.606173192340668976e+01,3.251566949338238643e+00
1.608173763932552092e+01,3.806232900894396032e+00
1.610174335524435563e+01,3.128700676090239163e+00
1.612174907116319034e+01,3.186357639216929272e+00
1.614175478708202505e+01,3.453323299055876205e+00
1.616176050300085620e+01,3.118645601424573144e+00
1.618176621891969091e+01,3.130232425475116376e+00
1.620177193483852562e+01,3.957615173081258764e+00
1.622177765075736033e+01,3.235203462814154385e+00
1.624178336667619504e+01,3.313574492411747840e+00
1.626178908259502620e+01,3.579825162502176639e+00
1.628179479851386091e+01,2.738990934708390945e+00
1.630180051443269562e+01,3.382551143350193801e+00
1.632180623035153033e+01,3.372692193840483021e+00
1.634181194627036149e+01,2.912413298181372845e+00
1.636181766218919620e+01,3.497481479917141201e+00
1.638182337810803091e+01,3.270489451262097447e+00
1.640182909402686562e+01,3.493000821965882352e+00
1.642183480994570033e+01,3.373550786256348744e+00
1.644184052586453504e+01,4.116045371375655293e+00
1.646184624178336620e+01,3.162350105590401306e+00
1.648185195770220091e+01,2.532446336075332205e+00
1.650185767362103562e+01,3.346755369588468199e+00
1.652186338953986677e+01,3.191545285322096248e+00
1.654186910545870148e+01,3.259385715260501470e+00
1.656187482137753619e+01,4.086733906528628779e+00
1.658188053729637090e+01,3.796646425462803620e+00
1.660188625321520561e+01,3.705498651639142604e+00
1.662189196913404032e+01,2.858686304289789426e+00
1.664189768505287148e+01,3.098685046199264548e+00
1.666190340097170619e+01,4.036144571359407074e+00
1.668190911689054090e+01,3.306263558635625266e+00
1.670191483280937561e+01,3.335568033950742972e+00
1.672192054872820677e+01,3.444575277637023092e+00
1.674192626464704148e+01,4.008697413585998959e+00
1.676193198056587619e+01,3.720698003585118485e+00
1.678193769648471090e+01,3.630180868641343928e+00
1.680194341240354561e+01,3.104999613317709795e+00
1.682194912832238032e+01,3.928298572402972422e+00
1.684195484424121148e+01,3.433110511067783754e+00
1.686196056016004619e+01,3.215083001821651187e+00
1.688196627607888090e+01,3.062074016632441609e+00
1.690197199199771205e+01,2.989442113369195297e+00
1.692197770791654676e+01,3.390243380049083655e+00
1.694198342383538147e+01,3.771624171033542972e+00
1.696198913975421618e+01,4.398572933808296170e+00
1.698199485567305089e+01,3.693222678414935345e+00
1.700200057159188560e+01,3.086746201347327023e+00
1.702200628751071676e+01,3.530963003874484585e+00
1.704201200342955147e+01,4.007673200140351000e+00
1.706201771934838618e+01,4.394191582044587818e+00
1.708202343526722089e+01,3.825182278632457411e+00
1.710202915118605205e+01,3.162539481856207590e+00
1.712203486710488676e+01,3.544117336165616194e+00
1.714204058302372147e+01,4.115019267495797273e+00
1.716204629894255618e+01,4.560167718089973121e+00
1.718205201486139089e+01,3.741259499757624951e+00
1.720205773078022204e+01,3.845539567388990498e+00
1.722206344669905675e+01,3.285563445443190567e+00
1.724206916261789146e+01,4.383619894336809431e+00
1.726207487853672617e+01,2.903693596537277877e+00
1.728208059445555733e+01,4.541803164347703259e+00
1.730208631037439204e+01,3.531537199726296095e+00
1.732209202629322675e+01,4.628679465114595715e+00
1.734209774221206146e+01,3.604488782809958103e+00
1.736210345813089617e+01,3.525825877312991352e+00
1.738210917404973088e+01,3.753044298697990833e+00
1.740211488996856204e+01,4.877664400285270929e+00
1.742212060588739675e+01,4.684032148802789841e+00
1.744212632180623146e+01,4.650386593196156326e+00
1.746213203772506262e+01,4.215794280532772831e+00
1.748213775364389733e+01,4.198613523355485100e+00
1.750214346956273204e+01,4.299883694709880189e+00
1.752214918548156675e+01,4.563290106772732280e+00
1.754215490140040146e+01,5.631148000743179338e+00
1.756216061731923617e+01,4.672907737592036703e+00
1.758216633323806732e+01,5.262778776840582040e+00
1.760217204915690203e+01,4.827623605329061540e+00
1.762217776507573674e+01,4.844447815724931772e+00
1.764218348099457145e+01,4.765045405307485993e+00
1.766218919691340261e+01,5.339314917805273453e+00
1.768219491283223732e+01,5.967922544090978221e+00
1.770220062875107203e+01,5.520643878208344013e+00
1.772220634466990674e+01,5.779250745037865400e+00
1.774221206058874145e+01,6.087197965826534940e+00
1.776221777650757616e+01,6.415033952428013997e+00
1.778222349242640732e+01,5.515710827490670098e+00
1.780222920834524203e+01,6.465080203194673913e+00
1.782223492426407674e+01,6.776778675002450569e+00
1.784224064018290790e+01,6.087595119072513938e+00
1.786224635610174261e+01,6.625155380304027730e+00
1.788225207202057732e+01,6.162425134876151844e+00
1.790225778793941203e+01,7.452630540822694272e+00
1.792226350385824674e+01,7.424777601373498293e+00
1.794226921977708145e+01,7.256454158349415096e+00
1.796227493569591260e+01,7.572683851724784532e+00
