angle,intensity
1.000000000000000000e+01,1.000000000000000000e+02
1.002000571591883471e+01,9.793565088195875035e+01
1.004001143183766764e+01,9.500252526464097969e+01
1.006001714775650235e+01,9.146839234317495482e+01
1.008002286367533529e+01,8.743132062873436894e+01
1.010002857959417000e+01,8.423469951351802365e+01
1.012003429551300293e+01,7.927604666416499413e+01
1.014004001143183764e+01,7.467647979697275673e+01
1.016004572735067235e+01,7.047421490562018676e+01
1.018005144326950528e+01,6.593382654320291181e+01
1.020005715918833999e+01,6.183270063375611159e+01
1.022006287510717293e+01,5.921708865932667720e+01
1.024006859102600764e+01,5.462259474046553720e+01
1.026007430694484057e+01,5.318958023023346016e+01
1.028008002286367528e+01,5.094174240967025469e+01
1.030008573878250999e+01,4.832746426519585015e+01
1.032009145470134293e+01,4.724177454772679141e+01
1.034009717062017764e+01,4.532955458508976676e+01
1.036010288653901057e+01,4.463263842825325867e+01
1.038010860245784528e+01,4.433173622177241668e+01
1.040011431837667999e+01,4.439583898951220675e+01
1.042012003429551292e+01,4.361835438204752791e+01
1.044012575021434763e+01,4.370036274073046911e+01
1.046013146613318057e+01,4.456353593535217072e+01
1.048013718205201528e+01,4.407727834677703527e+01
1.050014289797084821e+01,4.488526561932867764e+01
1.052014861388968292e+01,4.490028616490573654e+01
1.054015432980851585e+01,4.640766720343948748e+01
1.056016004572735056e+01,4.673156939881975802e+01
1.058016576164618527e+01,4.641297471084129711e+01
1.060017147756501821e+01,4.740976678971707514e+01
1.062017719348385292e+01,4.724852729079296410e+01
1.064018290940268585e+01,4.807117204355185436e+01
1.066018862532152056e+01,4.901590331903278042e+01
1.068019434124035527e+01,4.878592219963574905e+01
1.070020005715918820e+01,4.866549401735235847e+01
1.072020577307802292e+01,5.003095284397259945e+01
1.074021148899685585e+01,4.980057822665665412e+01
1.076021720491569056e+01,5.020492316978996428e+01
1.078022292083452349e+01,4.992289908394131004e+01
1.080022863675335820e+01,5.077375282904279175e+01
1.082023435267219291e+01,5.120746991017971084e+01
1.084024006859102585e+01,5.071774689064758235e+01
1.086024578450986056e+01,5.131807517532738672e+01
1.088025150042869349e+01,5.102073482731070442e+01
1.090025721634752820e+01,5.090640508028652533e+01
1.092026293226636113e+01,5.000136595406896589e+01
1.094026864818519584e+01,5.002486054815227590e+01
1.096027436410403055e+01,4.900477334058799528e+01
1.098028008002286349e+01,4.897404603050906502e+01
1.100028579594169820e+01,4.935450207618272600e+01
1.102029151186053113e+01,4.861372184502884153e+01
1.104029722777936584e+01,4.806922449018425425e+01
1.106030294369819877e+01,4.725452844956126341e+01
1.108030865961703348e+01,4.711946356730912555e+01
1.110031437553586819e+01,4.591192136711067917e+01
1.112032009145470113e+01,4.638190502254828118e+01
1.114032580737353584e+01,4.680723463347050739e+01
1.116033152329236877e+01,4.570282242201264467e+01
1.118033723921120348e+01,4.709576314912038697e+01
1.120034295513003642e+01,4.618548581786085094e+01
1.122034867104887113e+01,4.689381950546945177e+01
1.124035438696770584e+01,4.765845014631401000e+01
1.126036010288653877e+01,4.771570632427286540e+01
1.128036581880537348e+01,4.822904464822363479e+01
1.130037153472420641e+01,4.869360381735133814e+01
1.132037725064304112e+01,4.890517413659577528e+01
1.134038296656187583e+01,4.935240717135863520e+01
1.136038868248070877e+01,5.051153834884249250e+01
1.138039439839954348e+01,5.061536760222452358e+01
1.140040011431837641e+01,5.087897663467762754e+01
1.142040583023721112e+01,5.151224011089402666e+01
1.144041154615604405e+01,5.159107522556885783e+01
1.146041726207487876e+01,5.235874667235057700e+01
1.148042297799371170e+01,5.124236952131316514e+01
1.150042869391254641e+01,5.214563726578789726e+01
1.152043440983138112e+01,5.213395987218794403e+01
1.154044012575021405e+01,5.149788333931949325e+01
1.156044584166904876e+01,5.193186128964602233e+01
1.158045155758788169e+01,5.040833262425837802e+01
1.160045727350671640e+01,5.063879567872627518e+01
1.162046298942555111e+01,4.925071730375456269e+01
1.164046870534438405e+01,4.875662339904265963e+01
1.166047442126321876e+01,4.761285055387053688e+01
1.168048013718205169e+01,4.563500742830092349e+01
1.170048585310088640e+01,4.431460788315929733e+01
1.172049156901971934e+01,4.248671307342380743e+01
1.174049728493855405e+01,4.121363172850600165e+01
1.176050300085738698e+01,3.937788437775095929e+01
1.178050871677622169e+01,3.651249868173324842e+01
1.180051443269505640e+01,3.568940088022839774e+01
1.182052014861388933e+01,3.288984670091031148e+01
1.184052586453272404e+01,3.176628165308306251e+01
1.186053158045155698e+01,3.034648871010535487e+01
1.188053729637039169e+01,2.854485632710328957e+01
1.190054301228922640e+01,2.859908888157944773e+01
1.192054872820805933e+01,2.703101166478290196e+01
1.194055444412689404e+01,2.636089638727904827e+01
1.196056016004572697e+01,2.576608163241337479e+01
1.198056587596456168e+01,2.577518816610736963e+01
1.200057159188339639e+01,2.479031001262005418e+01
1.202057730780222933e+01,2.471505873876388648e+01
1.204058302372106226e+01,2.441197894430068516e+01
1.206058873963989697e+01,2.437654279217982989e+01
1.208059445555873168e+01,2.487649119998186720e+01
1.210060017147756461e+01,2.501226881291561455e+01
1.212060588739639932e+01,2.423145458253098639e+01
1.214061160331523226e+01,2.400868484305524220e+01
1.216061731923406697e+01,2.509074362110523282e+01
1.218062303515290168e+01,2.381240130215469009e+01
1.220062875107173461e+01,2.375746123199153814e+01
1.222063446699056932e+01,2.408223266653986272e+01
1.224064018290940226e+01,2.375037547207374189e+01
1.226064589882823697e+01,2.335109206294110606e+01
1.228065161474707168e+01,2.290526109268405719e+01
1.230065733066590461e+01,2.143111160186614939e+01
1.232066304658473754e+01,2.109037962481409778e+01
1.234066876250357225e+01,2.141797969342428587e+01
1.236067447842240696e+01,1.970931234418869593e+01
1.238068019434123990e+01,1.902417484624431765e+01
1.240068591026007461e+01,1.764336682624661989e+01
1.242069162617890754e+01,1.779289242692387063e+01
1.244069734209774225e+01,1.576914976529849000e+01
1.246070305801657696e+01,1.544858620271085670e+01
1.248070877393540989e+01,1.360541075442697156e+01
1.250071448985424460e+01,1.306976656042475327e+01
1.252072020577307754e+01,1.215211867216742370e+01
1.254072592169191225e+01,1.104236555052279023e+01
1.256073163761074696e+01,9.933232353540770276e+00
1.258073735352957989e+01,1.025673638280660604e+01
1.260074306944841460e+01,8.973767011300967766e+00
1.262074878536724754e+01,8.154917570524517600e+00
1.264075450128608225e+01,7.884341283907583708e+00
1.266076021720491518e+01,7.750255268773168282e+00
1.268076593312374989e+01,7.868331830383416658e+00
1.270077164904258282e+01,7.265869557088930009e+00
1.272077736496141753e+01,7.420186397516665977e+00
1.274078308088025224e+01,6.121886742396688064e+00
1.276078879679908518e+01,5.761683976104680305e+00
1.278079451271791989e+01,6.263099772477389138e+00
1.280080022863675282e+01,5.402421674111080208e+00
1.282080594455558753e+01,6.274772866480179623e+00
1.284081166047442224e+01,6.068541020332850700e+00
1.286081737639325517e+01,6.166453225663540039e+00
1.288082309231208988e+01,5.733843438249555113e+00
1.290082880823092282e+01,6.004402743522680552e+00
1.292083452414975753e+01,5.912636276010343472e+00
1.294084024006859224e+01,6.019431121162973852e+00
1.296084595598742517e+01,6.411018007334765123e+00
1.298085167190625810e+01,6.559866504918840491e+00
1.300085738782509281e+01,5.433404756192096841e+00
1.302086310374392752e+01,6.349860989720601090e+00
1.304086881966276046e+01,4.838133727364626324e+00
1.306087453558159517e+01,5.161399698825057669e+00
1.308088025150042810e+01,6.095987290612418619e+00
1.310088596741926281e+01,4.868030853116774637e+00
1.312089168333809752e+01,5.648601460309901512e+00
1.314089739925693046e+01,5.327966907951229736e+00
1.316090311517576517e+01,5.618919350000911805e+00
1.318090883109459810e+01,4.961906474371955866e+00
1.320091454701343281e+01,4.888619298164465832e+00
1.322092026293226752e+01,5.860958620719960876e+00
1.324092597885110045e+01,5.719087015009487018e+00
1.326093169476993339e+01,4.547535603030168794e+00
1.328093741068876810e+01,5.585579368355958252e+00
1.330094312660760281e+01,4.733044221477284097e+00
1.332094884252643574e+01,5.346160197076995857e+00
1.334095455844527045e+01,4.754206674174811909e+00
1.336096027436410338e+01,5.885856424895326455e+00
1.338096599028293809e+01,5.337646437939595145e+00
1.340097170620177280e+01,5.116357757505150872e+00
1.342097742212060574e+01,5.174476469503964893e+00
1.344098313803944045e+01,4.412584218364154154e+00
1.346098885395827338e+01,4.535996892096406441e+00
1.348099456987710809e+01,5.096147632956677498e+00
1.350100028579594280e+01,5.160186694546813335e+00
1.352100600171477573e+01,5.409850090209997298e+00
1.354101171763361044e+01,5.399519578383986662e+00
1.356101743355244338e+01,5.107048189154941298e+00
1.358102314947127809e+01,5.178669075488842921e+00
1.360102886539011102e+01,5.087358693598289960e+00
1.362103458130894573e+01,5.091426228357319062e+00
1.364104029722777867e+01,5.067882511061239548e+00
1.366104601314661338e+01,4.978328222204444486e+00
1.368105172906544809e+01,5.035776563982240717e+00
1.370105744498428102e+01,5.110404880714689568e+00
1.372106316090311573e+01,4.949222647958691823e+00
1.374106887682194866e+01,5.519978091468415116e+00
1.376107459274078337e+01,5.064731245826502359e+00
1.378108030865961808e+01,4.271139102818059641e+00
1.380108602457845102e+01,5.459078787087667806e+00
1.382109174049728573e+01,4.729945060561890458e+00
1.384109745641611866e+01,4.862507245964103220e+00
1.386110317233495337e+01,4.411785979959164550e+00
1.388110888825378808e+01,5.209157868138322378e+00
1.390111460417262101e+01,5.603584197386891397e+00
1.392112032009145395e+01,4.646963663208055095e+00
1.394112603601028866e+01,5.214776422210984919e+00
1.396113175192912337e+01,4.584193060402163233e+00
1.398113746784795630e+01,4.779614948548044140e+00
1.400114318376679101e+01,4.783343905946979113e+00
1.402114889968562395e+01,5.143400376864896373e+00
1.404115461560445866e+01,4.903333778759559891e+00
1.406116033152329337e+01,4.867602699534365307e+00
1.408116604744212630e+01,5.809123235769467541e+00
1.410117176336095923e+01,5.065396526385993248e+00
1.412117747927979394e+01,4.429674093051598760e+00
1.414118319519862865e+01,4.525231210972349594e+00
1.416118891111746336e+01,4.683788413496669634e+00
1.418119462703629630e+01,4.166020961352575824e+00
1.420120034295512923e+01,4.760735729439030450e+00
1.422120605887396394e+01,4.478403158809458162e+00
1.424121177479279865e+01,5.035639136984338293e+00
1.426121749071163336e+01,4.529630117418186330e+00
1.428122320663046629e+01,5.346694462505494627e+00
1.430122892254929923e+01,4.603788130841447668e+00
1.432123463846813394e+01,5.633780284806519489e+00
1.434124035438696865e+01,4.735928788059557526e+00
1.436124607030580158e+01,4.701708119069060388e+00
1.438125178622463629e+01,5.074315557379096120e+00
1.440125750214346922e+01,5.512984837153725337e+00
1.442126321806230393e+01,4.631273883510022671e+00
1.444126893398113864e+01,5.553047120412976767e+00
1.446127464989997158e+01,4.672310813440201827e+00
1.448128036581880451e+01,4.749977772058499248e+00
1.450128608173763922e+01,4.439626355166680582e+00
1.452129179765647393e+01,5.343961242373547194e+00
1.454129751357530864e+01,5.101697743329942192e+00
1.456130322949414158e+01,5.587607384981575720e+00
1.458130894541297451e+01,5.506938977305097183e+00
1.460131466133180922e+01,5.888868764660287525e+00
1.462132037725064393e+01,5.323230651494567311e+00
1.464132609316947686e+01,6.262461836419193517e+00
1.466133180908831157e+01,6.115057041703745533e+00
1.468133752500714451e+01,5.857370619669808320e+00
1.470134324092597922e+01,6.151517860120522485e+00
1.472134895684481393e+01,5.722399672391804692e+00
1.474135467276364686e+01,6.191468521368458156e+00
1.476136038868247979e+01,5.909710048835376206e+00
1.478136610460131450e+01,5.399080520223863644e+00
1.480137182052014921e+01,5.753072919416870157e+00
1.482137753643898392e+01,6.926516452870108864e+00
1.484138325235781686e+01,6.252151204467961243e+00
1.486138896827664979e+01,6.365252710900092481e+00
1.488139468419548450e+01,6.365628473966703282e+00
1.490140040011431921e+01,6.740536026803345848e+00
1.492140611603315392e+01,7.663033494453307171e+00
1.494141183195198685e+01,6.911939986362780175e+00
1.496141754787081979e+01,6.965854609649747786e+00
1.498142326378965450e+01,7.731785084112232198e+00
1.500142897970848921e+01,7.359091394935214581e+00
1.502143469562732214e+01,7.236758483297832889e+00
1.504144041154615508e+01,8.329098836444266851e+00
1.506144612746498979e+01,8.182708602984231305e+00
1.508145184338382450e+01,8.086968209856351564e+00
1.510145755930265921e+01,8.164093713631395133e+00
1.512146327522149214e+01,8.111804415124254319e+00
1.514146899114032507e+01,9.040916533663999388e+00
1.516147470705915978e+01,8.600943577909552218e+00
1.518148042297799449e+01,9.226297579423702544e+00
1.520148613889682920e+01,9.459408842800783646e+00
1.522149185481566214e+01,9.220441790016231209e+00
1.524149757073449507e+01,9.483852099105824607e+00
1.526150328665332978e+01,1.015671384747587425e+01
1.528150900257216449e+01,1.006408968754263000e+01
1.530151471849099742e+01,1.061263689675030975e+01
1.532152043440983036e+01,1.123375312513664070e+01
1.534152615032866507e+01,1.173192145188307833e+01
1.536153186624749978e+01,1.196596046070207109e+01
1.538153758216633449e+01,1.171218098919503348e+01
1.540154329808516742e+01,1.274987693279399892e+01
1.542154901400400036e+01,1.210471297508378363e+01
1.544155472992283507e+01,1.326614192473791576e+01
1.546156044584166978e+01,1.306169043756420933e+01
1.548156616176050449e+01,1.313697882123307181e+01
1.550157187767933742e+01,1.412293041764075774e+01
1.552157759359817035e+01,1.401595013417102109e+01
1.554158330951700506e+01,1.509639770584031027e+01
1.556158902543583977e+01,1.501284027160421175e+01
1.558159474135467271e+01,1.570001693861425807e+01
1.560160045727350742e+01,1.562689824868404642e+01
1.562160617319234035e+01,1.560608492374335654e+01
1.564161188911117506e+01,1.637621288249996709e+01
1.566161760503000977e+01,1.637551761241798332e+01
1.568162332094884270e+01,1.755614878331702045e+01
1.570162903686767564e+01,1.739533510181979281e+01
1.572163475278651035e+01,1.823529636660597220e+01
1.574164046870534506e+01,1.894584321805121618e+01
1.576164618462417977e+01,1.927065048949688730e+01
1.578165190054301270e+01,2.036305590504978369e+01
1.580165761646184563e+01,2.074772275060482940e+01
1.582166333238068034e+01,2.181763993195346529e+01
1.584166904829951505e+01,2.172405970326181546e+01
1.586167476421834799e+01,2.282668685135744013e+01
1.588168048013718270e+01,2.273012629762848036e+01
1.590168619605601563e+01,2.367053567345709197e+01
1.592169191197485034e+01,2.449456909275257033e+01
1.594169762789368505e+01,2.463983998851188062e+01
1.596170334381251799e+01,2.522527459116196269e+01
1.598170905973135092e+01,2.666184354280399305e+01
1.600171477565018563e+01,2.671951587162683595e+01
1.602172049156902034e+01,2.818551271250959900e+01
1.604172620748785505e+01,2.959005095311949773e+01
1.606173192340668976e+01,2.942205084373028967e+01
1.608173763932552092e+01,3.060853319723158350e+01
1.610174335524435563e+01,3.148324541866144699e+01
1.612174907116319034e+01,3.209192928988254323e+01
1.614175478708202505e+01,3.346957914294873149e+01
1.616176050300085620e+01,3.337074325488248405e+01
1.618176621891969091e+01,3.475085292429200479e+01
1.620177193483852562e+01,3.460327195791815313e+01
1.622177765075736033e+01,3.594183714036286403e+01
1.624178336667619504e+01,3.641908631243910577e+01
1.626178908259502620e+01,3.691779177334032624e+01
1.628179479851386091e+01,3.690975353519146296e+01
1.630180051443269562e+01,3.790242785682880822e+01
1.632180623035153033e+01,3.765517210478201804e+01
1.634181194627036149e+01,3.840808462641342658e+01
1.636181766218919620e+01,3.835560454787248830e+01
1.638182337810803091e+01,3.790060088803321037e+01
1.640182909402686562e+01,3.800413170656766226e+01
1.642183480994570033e+01,3.760597114356196613e+01
1.644184052586453504e+01,3.667204743135667400e+01
1.646184624178336620e+01,3.670904581135616240e+01
1.648185195770220091e+01,3.544953324677328510e+01
1.650185767362103562e+01,3.437308938525986690e+01
1.652186338953986677e+01,3.297999555017312190e+01
1.654186910545870148e+01,3.273575332916853142e+01
1.656187482137753619e+01,3.114983478396545991e+01
1.658188053729637090e+01,3.109537193889565998e+01
1.660188625321520561e+01,2.947136571828621499e+01
1.662189196913404032e+01,2.891123357596302768e+01
1.664189768505287148e+01,2.858087786607596925e+01
1.666190340097170619e+01,2.866529443983239744e+01
1.668190911689054090e+01,2.732732004959923344e+01
1.670191483280937561e+01,2.788232454357738277e+01
1.672192054872820677e+01,2.679530062887361908e+01
1.674192626464704148e+01,2.744673608019893152e+01
1.676193198056587619e+01,2.713971755169379563e+01
1.678193769648471090e+01,2.708688387324150781e+01
1.680194341240354561e+01,2.734845428007723100e+01
1.682194912832238032e+01,2.764104254403555672e+01
1.684195484424121148e+01,2.732133295309080978e+01
1.686196056016004619e+01,2.773677367543616157e+01
1.688196627607888090e+01,2.783552599501359381e+01
1.690197199199771205e+01,2.854372973042480766e+01
1.692197770791654676e+01,2.799139363238603195e+01
1.694198342383538147e+01,2.738282067197939185e+01
1.696198913975421618e+01,2.741059605127779264e+01
1.698199485567305089e+01,2.678850783473768615e+01
1.700200057159188560e+01,2.514826399364062581e+01
1.702200628751071676e+01,2.550793121974816913e+01
1.704201200342955147e+01,2.357292915731675009e+01
1.706201771934838618e+01,2.280454151313070454e+01
1.708202343526722089e+01,2.188561748582363720e+01
1.710202915118605205e+01,2.013593034123288561e+01
1.712203486710488676e+01,1.868896100394933057e+01
1.714204058302372147e+01,1.707750210895620668e+01
1.716204629894255618e+01,1.583579620247194697e+01
1.718205201486139089e+01,1.470269896523506503e+01
1.720205773078022204e+01,1.384546350077528487e+01
1.722206344669905675e+01,1.150960050391573652e+01
1.724206916261789146e+01,1.038910462663834977e+01
1.726207487853672617e+01,1.053959653859823398e+01
1.728208059445555733e+01,9.099807718339498308e+00
1.730208631037439204e+01,8.489440271274267147e+00
1.732209202629322675e+01,7.263161522428285721e+00
1.734209774221206146e+01,7.910352469815990162e+00
1.736210345813089617e+01,6.544323437182169023e+00
1.738210917404973088e+01,6.722960316333080222e+00
1.740211488996856204e+01,6.441231198360249266e+00
1.742212060588739675e+01,5.616942147348101599e+00
1.744212632180623146e+01,5.364676348304915798e+00
1.746213203772506262e+01,5.089035837623672620e+00
1.748213775364389733e+01,5.573569669166534624e+00
1.750214346956273204e+01,6.156078370534356914e+00
1.752214918548156675e+01,4.636489427261725638e+00
1.754215490140040146e+01,4.810117030226863655e+00
1.756216061731923617e+01,4.864750221219383164e+00
1.758216633323806732e+01,4.771741676785818953e+00
1.760217204915690203e+01,4.346320239952325082e+00
1.762217776507573674e+01,4.929556850803770374e+00
1.764218348099457145e+01,5.152984349154648314e+00
1.766218919691340261e+01,4.866114198118038026e+00
1.768219491283223732e+01,5.386304106902050748e+00
1.770220062875107203e+01,5.253492585265298942e+00
1.772220634466990674e+01,5.029097152224993650e+00
1.774221206058874145e+01,5.731379770378994820e+00
1.776221777650757616e+01,5.224529738312686078e+00
1.778222349242640732e+01,5.319574127168651856e+00
1.780222920834524203e+01,5.355371002113471057e+00
1.782223492426407674e+01,5.365128964042126469e+00
1.784224064018290790e+01,5.333848621450801630e+00
1.786224635610174261e+01,5.874443969645533059e+00
1.788225207202057732e+01,5.383314874647695092e+00
1.790225778793941203e+01,5.504818001196179367e+00
1.792226350385824674e+01,5.434470396472767639e+00
1.794226921977708145e+01,5.523718243786198911e+00
1.796227493569591260e+01,5.321495088562469888e+00
