angle,intensity
1.000000000000000000e+01,6.181817723258006936e+01
1.002000571591883471e+01,6.375238311774684519e+01
1.004001143183766764e+01,6.486076971404206404e+01
1.006001714775650235e+01,6.668067202409034167e+01
1.008002286367533529e+01,6.733389150905313159e+01
1.010002857959417000e+01,6.907729896805527403e+01
1.012003429551300293e+01,7.055465749301276901e+01
1.014004001143183764e+01,7.151849444237785747e+01
1.016004572735067235e+01,7.264294791744779900e+01
1.018005144326950528e+01,7.394053102947472667e+01
1.020005715918833999e+01,7.500655569865517691e+01
1.022006287510717293e+01,7.646301283175998265e+01
1.024006859102600764e+01,7.821780636042133494e+01
1.026007430694484057e+01,7.916512523524363587e+01
1.028008002286367528e+01,8.099637547264748605e+01
1.030008573878250999e+01,8.220800506643982430e+01
1.032009145470134293e+01,8.371042274921890680e+01
1.034009717062017764e+01,8.546985016941032143e+01
1.036010288653901057e+01,8.721533306907629424e+01
1.038010860245784528e+01,8.800501142314308822e+01
1.040011431837667999e+01,8.857555846231868202e+01
1.042012003429551292e+01,9.097711751832389382e+01
1.044012575021434763e+01,9.218557104640075295e+01
1.046013146613318057e+01,9.329715387243628300e+01
1.048013718205201528e+01,9.450420618362318237e+01
1.050014289797084821e+01,9.521287650064365948e+01
1.052014861388968292e+01,9.640147483901074565e+01
1.054015432980851585e+01,9.750108082172030777e+01
1.056016004572735056e+01,9.777807648205524060e+01
1.058016576164618527e+01,9.921400174382912951e+01
1.060017147756501821e+01,9.849195598676800500e+01
1.062017719348385292e+01,1.000000000000000000e+02
1.064018290940268585e+01,9.947785414693137795e+01
1.066018862532152056e+01,9.861013538615075902e+01
1.068019434124035527e+01,9.946075453694527368e+01
1.070020005715918820e+01,9.872868397875909352e+01
1.072020577307802292e+01,9.728952578561438713e+01
1.074021148899685585e+01,9.594545771970391002e+01
1.076021720491569056e+01,9.444352377639214069e+01
1.078022292083452349e+01,9.255069883264968666e+01
1.080022863675335820e+01,9.046794865838670319e+01
1.082023435267219291e+01,8.718159409034831242e+01
1.084024006859102585e+01,8.446997184655906210e+01
1.086024578450986056e+01,8.115468538589655623e+01
1.088025150042869349e+01,7.713046138956650566e+01
1.090025721634752820e+01,7.329837559222180232e+01
1.092026293226636113e+01,6.944293291683541725e+01
1.094026864818519584e+01,6.535143283438264916e+01
1.096027436410403055e+01,6.079061642983565150e+01
1.098028008002286349e+01,5.735193296183709322e+01
1.100028579594169820e+01,5.305937396535608030e+01
1.102029151186053113e+01,4.992666473885621770e+01
1.104029722777936584e+01,4.714823702170180297e+01
1.106030294369819877e+01,4.419290059943187998e+01
1.108030865961703348e+01,4.220922324549189852e+01
1.110031437553586819e+01,3.934699215572570097e+01
1.112032009145470113e+01,3.757823640516254216e+01
1.114032580737353584e+01,3.765305919193315276e+01
1.116033152329236877e+01,3.510790541146020161e+01
1.118033723921120348e+01,3.420263267690856424e+01
1.120034295513003642e+01,3.476167824374589799e+01
1.122034867104887113e+01,3.361885364333128479e+01
1.124035438696770584e+01,3.350757925729769227e+01
1.126036010288653877e+01,3.246857693412604107e+01
1.128036581880537348e+01,3.280916531630325039e+01
1.130037153472420641e+01,3.164134575211929246e+01
1.132037725064304112e+01,3.184059842365471837e+01
1.134038296656187583e+01,3.180312017823537118e+01
1.136038868248070877e+01,3.152006159576986732e+01
1.138039439839954348e+01,3.200938797495827259e+01
1.140040011431837641e+01,3.253466312386120762e+01
1.142040583023721112e+01,3.223105594791545769e+01
1.144041154615604405e+01,3.290241478064699265e+01
1.146041726207487876e+01,3.292385930524967108e+01
1.148042297799371170e+01,3.357208025532236206e+01
1.150042869391254641e+01,3.403603557838641791e+01
1.152043440983138112e+01,3.389741999713853460e+01
1.154044012575021405e+01,3.418310475052680886e+01
1.156044584166904876e+01,3.455968528037698206e+01
1.158045155758788169e+01,3.581071037048761241e+01
1.160045727350671640e+01,3.565239659525552440e+01
1.162046298942555111e+01,3.599367990850429067e+01
1.164046870534438405e+01,3.732207311468199862e+01
1.166047442126321876e+01,3.824075408949140353e+01
1.168048013718205169e+01,3.838311127168321946e+01
1.170048585310088640e+01,3.943255974251508178e+01
1.172049156901971934e+01,3.869074321394685967e+01
1.174049728493855405e+01,4.004919250088298099e+01
1.176050300085738698e+01,4.028416624735683627e+01
1.178050871677622169e+01,4.124898020071400140e+01
1.180051443269505640e+01,4.242316412686176363e+01
1.182052014861388933e+01,4.185428650867406475e+01
1.184052586453272404e+01,4.367818155088525600e+01
1.186053158045155698e+01,4.391981320373820097e+01
1.188053729637039169e+01,4.425446990546974746e+01
1.190054301228922640e+01,4.371070963975860479e+01
1.192054872820805933e+01,4.501179926923192909e+01
1.194055444412689404e+01,4.535968482263427859e+01
1.196056016004572697e+01,4.574983885287124963e+01
1.198056587596456168e+01,4.575609946203827860e+01
1.200057159188339639e+01,4.699372013126084369e+01
1.202057730780222933e+01,4.658024535689430934e+01
1.204058302372106226e+01,4.647017576064838806e+01
1.206058873963989697e+01,4.742808707823797931e+01
1.208059445555873168e+01,4.739091997975681636e+01
1.210060017147756461e+01,4.787677868504157175e+01
1.212060588739639932e+01,4.788078285613541141e+01
1.214061160331523226e+01,4.864452202500282851e+01
1.216061731923406697e+01,4.879971158701989964e+01
1.218062303515290168e+01,4.830721844240967755e+01
1.220062875107173461e+01,4.916040806708502942e+01
1.222063446699056932e+01,4.882775263664083809e+01
1.224064018290940226e+01,4.983445121901188912e+01
1.226064589882823697e+01,4.864608893271017109e+01
1.228065161474707168e+01,4.952229329272964264e+01
1.230065733066590461e+01,4.901133202266191802e+01
1.232066304658473754e+01,4.952581183318002900e+01
1.234066876250357225e+01,4.864128937250726636e+01
1.236067447842240696e+01,4.777123571892926179e+01
1.238068019434123990e+01,4.681865797359502324e+01
1.240068591026007461e+01,4.644503952203918118e+01
1.242069162617890754e+01,4.547850705785835856e+01
1.244069734209774225e+01,4.410125701084680827e+01
1.246070305801657696e+01,4.274803931127420498e+01
1.248070877393540989e+01,4.148855100636785664e+01
1.250071448985424460e+01,3.966868623377762049e+01
1.252072020577307754e+01,3.827887282508510225e+01
1.254072592169191225e+01,3.568733033042425973e+01
1.256073163761074696e+01,3.336655732393324314e+01
1.258073735352957989e+01,3.229114936942490033e+01
1.260074306944841460e+01,2.954967232414673362e+01
1.262074878536724754e+01,2.787079832669130752e+01
1.264075450128608225e+01,2.622284196660003275e+01
1.266076021720491518e+01,2.449535652074751368e+01
1.268076593312374989e+01,2.322889360276057857e+01
1.270077164904258282e+01,2.242388602291922695e+01
1.272077736496141753e+01,2.083313375805958856e+01
1.274078308088025224e+01,2.046556295396357683e+01
1.276078879679908518e+01,1.846273470605194689e+01
1.278079451271791989e+01,1.777248502455347889e+01
1.280080022863675282e+01,1.761772364587496753e+01
1.282080594455558753e+01,1.656869488126535117e+01
1.284081166047442224e+01,1.650559213954669957e+01
1.286081737639325517e+01,1.531689763428395068e+01
1.288082309231208988e+01,1.593368071784755635e+01
1.290082880823092282e+01,1.508702549687947325e+01
1.292083452414975753e+01,1.448547467798690036e+01
1.294084024006859224e+01,1.427195791612162346e+01
1.296084595598742517e+01,1.352364268904374534e+01
1.298085167190625810e+01,1.349520730792243128e+01
1.300085738782509281e+01,1.336382993277451803e+01
1.302086310374392752e+01,1.277216984494026164e+01
1.304086881966276046e+01,1.233926535690326354e+01
1.306087453558159517e+01,1.293013764304173563e+01
1.308088025150042810e+01,1.241775927172256644e+01
1.310088596741926281e+01,1.231140112988901691e+01
1.312089168333809752e+01,1.259004535753880205e+01
1.314089739925693046e+01,1.283762352644657767e+01
1.316090311517576517e+01,1.263170324634748809e+01
1.318090883109459810e+01,1.224609707136790959e+01
1.320091454701343281e+01,1.198699030458339188e+01
1.322092026293226752e+01,1.224344741347347743e+01
1.324092597885110045e+01,1.260814187241366113e+01
1.326093169476993339e+01,1.257918171977580712e+01
1.328093741068876810e+01,1.277938497135636453e+01
1.330094312660760281e+01,1.244078507011117729e+01
1.332094884252643574e+01,1.265067727201333803e+01
1.334095455844527045e+01,1.199209636173852545e+01
1.336096027436410338e+01,1.237551954451481251e+01
1.338096599028293809e+01,1.338342105265990156e+01
1.340097170620177280e+01,1.183098825540934840e+01
1.342097742212060574e+01,1.139040467735259021e+01
1.344098313803944045e+01,1.219733293750894632e+01
1.346098885395827338e+01,1.231300776088332860e+01
1.348099456987710809e+01,1.118047845986015076e+01
1.350100028579594280e+01,1.141353351941106808e+01
1.352100600171477573e+01,1.110836065900407910e+01
1.354101171763361044e+01,1.005952306244837402e+01
1.356101743355244338e+01,1.068044480002458840e+01
1.358102314947127809e+01,1.019257357863627078e+01
1.360102886539011102e+01,9.062271018697167335e+00
1.362103458130894573e+01,8.545013162743851254e+00
1.364104029722777867e+01,8.201339009584097894e+00
1.366104601314661338e+01,8.110199294710781714e+00
1.368105172906544809e+01,7.429676773667811318e+00
1.370105744498428102e+01,7.040688098397115624e+00
1.372106316090311573e+01,7.620459559927729387e+00
1.374106887682194866e+01,6.053303337015892183e+00
1.376107459274078337e+01,6.647655040809167915e+00
1.378108030865961808e+01,5.870400165267216863e+00
1.380108602457845102e+01,5.073298931976459869e+00
1.382109174049728573e+01,5.864670363445458889e+00
1.384109745641611866e+01,5.173062684089568819e+00
1.386110317233495337e+01,5.641547887230867531e+00
1.388110888825378808e+01,5.720228360506856902e+00
1.390111460417262101e+01,5.456090560545771240e+00
1.392112032009145395e+01,5.415511575087138318e+00
1.394112603601028866e+01,5.153155133692362000e+00
1.396113175192912337e+01,5.722437139514740423e+00
1.398113746784795630e+01,4.700853144316367249e+00
1.400114318376679101e+01,4.530473845515427200e+00
1.402114889968562395e+01,5.956774594608276630e+00
1.404115461560445866e+01,5.751950436390696808e+00
1.406116033152329337e+01,5.175249797301658461e+00
1.408116604744212630e+01,4.651536100789315675e+00
1.410117176336095923e+01,5.018284622783124149e+00
1.412117747927979394e+01,5.654790721269485232e+00
1.414118319519862865e+01,5.388775055502344813e+00
1.416118891111746336e+01,4.500577734925719220e+00
1.418119462703629630e+01,5.872009332630197420e+00
1.420120034295512923e+01,5.430274828910759410e+00
1.422120605887396394e+01,5.683980577564462067e+00
1.424121177479279865e+01,4.917086543036293556e+00
1.426121749071163336e+01,4.426479673449730257e+00
1.428122320663046629e+01,5.189398512807922970e+00
1.430122892254929923e+01,4.977664253803441241e+00
1.432123463846813394e+01,5.330008222439442278e+00
1.434124035438696865e+01,4.454225659040199403e+00
1.436124607030580158e+01,5.295607289316169641e+00
1.438125178622463629e+01,4.871147489389802132e+00
1.440125750214346922e+01,4.293316384527661178e+00
1.442126321806230393e+01,4.091471924115854364e+00
1.444126893398113864e+01,4.145064714862078503e+00
1.446127464989997158e+01,4.236068556839231114e+00
1.448128036581880451e+01,5.131067501313513191e+00
1.450128608173763922e+01,5.131906099959537393e+00
1.452129179765647393e+01,4.807436193601221319e+00
1.454129751357530864e+01,4.889766736239696598e+00
1.456130322949414158e+01,4.919749008139237212e+00
1.458130894541297451e+01,4.601058669632498876e+00
1.460131466133180922e+01,5.222062620351668016e+00
1.462132037725064393e+01,4.980968463859367645e+00
1.464132609316947686e+01,5.279140340845520640e+00
1.466133180908831157e+01,4.748349820124589726e+00
1.468133752500714451e+01,5.029005063348959581e+00
1.470134324092597922e+01,5.194805980793396394e+00
1.472134895684481393e+01,4.544161204162566747e+00
1.474135467276364686e+01,4.834357129928910091e+00
1.476136038868247979e+01,4.536083362790752638e+00
1.478136610460131450e+01,4.143378239511997130e+00
1.480137182052014921e+01,5.023442211269474100e+00
1.482137753643898392e+01,4.449929868651111065e+00
1.484138325235781686e+01,4.787799098317571556e+00
1.486138896827664979e+01,4.014668130179421368e+00
1.488139468419548450e+01,5.385994613346657189e+00
1.490140040011431921e+01,4.424446502425340988e+00
1.492140611603315392e+01,3.810881298347013058e+00
1.494141183195198685e+01,4.075234072536106922e+00
1.496141754787081979e+01,4.502999167123525659e+00
1.498142326378965450e+01,4.502430431141064560e+00
1.500142897970848921e+01,3.867428935449746863e+00
1.502143469562732214e+01,4.766110784772923381e+00
1.504144041154615508e+01,4.910817455814511234e+00
1.506144612746498979e+01,4.569657246985963539e+00
1.508145184338382450e+01,4.379174981751676299e+00
1.510145755930265921e+01,4.584909746316982115e+00
1.512146327522149214e+01,4.791969730281321560e+00
1.514146899114032507e+01,5.062825673760425360e+00
1.516147470705915978e+01,5.109458754493516608e+00
1.518148042297799449e+01,4.702000019797082153e+00
1.520148613889682920e+01,4.910060494963025768e+00
1.522149185481566214e+01,4.785036283084746600e+00
1.524149757073449507e+01,4.488919659466249712e+00
1.526150328665332978e+01,4.144404349239436236e+00
1.528150900257216449e+01,4.740391019591330135e+00
1.530151471849099742e+01,4.564959628604350783e+00
1.532152043440983036e+01,4.614465600354245467e+00
1.534152615032866507e+01,4.121732437481392175e+00
1.536153186624749978e+01,4.685037143701416440e+00
1.538153758216633449e+01,4.331582795550236398e+00
1.540154329808516742e+01,4.470002144784951170e+00
1.542154901400400036e+01,4.858179742531775425e+00
1.544155472992283507e+01,4.139982779209533170e+00
1.546156044584166978e+01,4.186111113920379267e+00
1.548156616176050449e+01,4.350906256756086776e+00
1.550157187767933742e+01,5.205225276464187978e+00
1.552157759359817035e+01,4.492055221085173855e+00
1.554158330951700506e+01,4.748303542997481586e+00
1.556158902543583977e+01,4.715424499300445049e+00
1.558159474135467271e+01,4.407983240864803420e+00
1.560160045727350742e+01,4.646965345949805481e+00
1.562160617319234035e+01,4.085234321001333768e+00
1.564161188911117506e+01,4.177427422041134264e+00
1.566161760503000977e+01,4.345889649671766719e+00
1.568162332094884270e+01,4.720721921755705708e+00
1.570162903686767564e+01,4.988092005827553521e+00
1.572163475278651035e+01,4.403959845539699103e+00
1.574164046870534506e+01,5.380935360085138619e+00
1.576164618462417977e+01,4.771166972152161456e+00
1.578165190054301270e+01,5.202802091249774108e+00
1.580165761646184563e+01,4.712362419264427338e+00
1.582166333238068034e+01,4.771014716912817200e+00
1.584166904829951505e+01,4.671618827570600985e+00
1.586167476421834799e+01,4.405622746065811057e+00
1.588168048013718270e+01,4.309668414500071876e+00
1.590168619605601563e+01,4.884184997774243087e+00
1.592169191197485034e+01,4.576378635986618093e+00
1.594169762789368505e+01,4.866247391442064085e+00
1.596170334381251799e+01,4.763947297432652661e+00
1.598170905973135092e+01,4.427911925080930011e+00
1.600171477565018563e+01,4.750911789092949533e+00
1.602172049156902034e+01,5.242381718547923342e+00
1.604172620748785505e+01,5.338708904845937298e+00
1.606173192340668976e+01,4.979944439744478757e+00
1.608173763932552092e+01,4.831740103216262128e+00
1.610174335524435563e+01,6.063547623623847471e+00
1.612174907116319034e+01,5.672169224813238486e+00
1.614175478708202505e+01,5.321831887206217360e+00
1.616176050300085620e+01,5.053424553497674054e+00
1.618176621891969091e+01,5.240279374782220501e+00
1.620177193483852562e+01,5.733402880566501381e+00
1.622177765075736033e+01,5.856282247069639624e+00
1.624178336667619504e+01,5.372761114758164425e+00
1.626178908259502620e+01,5.981351460761956673e+00
1.628179479851386091e+01,6.269191250655509862e+00
1.630180051443269562e+01,6.163530206043509097e+00
1.632180623035153033e+01,5.662177091629338577e+00
1.634181194627036149e+01,7.003697097756711898e+00
1.636181766218919620e+01,6.769730850816231715e+00
1.638182337810803091e+01,6.894070160061895436e+00
1.640182909402686562e+01,7.442563296343640999e+00
1.642183480994570033e+01,7.419045258642892549e+00
1.644184052586453504e+01,6.929123279681943970e+00
1.646184624178336620e+01,7.263306758535371443e+00
1.648185195770220091e+01,7.520968943500971449e+00
1.650185767362103562e+01,8.150500772541121819e+00
1.652186338953986677e+01,8.123572997413457841e+00
1.654186910545870148e+01,7.737355114604134165e+00
1.656187482137753619e+01,7.914237362631879158e+00
1.658188053729637090e+01,8.539883492118377717e+00
1.660188625321520561e+01,9.099037368328882991e+00
1.662189196913404032e+01,9.670288353291009997e+00
1.664189768505287148e+01,9.393858400541263975e+00
1.666190340097170619e+01,9.454891566099561828e+00
1.668190911689054090e+01,1.035474816751209026e+01
1.670191483280937561e+01,1.001919538533624632e+01
1.672192054872820677e+01,1.101963437414043057e+01
1.674192626464704148e+01,1.020004682203305890e+01
1.676193198056587619e+01,1.069871516768611031e+01
1.678193769648471090e+01,1.138051601144725744e+01
1.680194341240354561e+01,1.237290195938443205e+01
1.682194912832238032e+01,1.129475491418542532e+01
1.684195484424121148e+01,1.273575685691101711e+01
1.686196056016004619e+01,1.226908164401160839e+01
1.688196627607888090e+01,1.225467104898183024e+01
1.690197199199771205e+01,1.352211166672041642e+01
1.692197770791654676e+01,1.343093194021310310e+01
1.694198342383538147e+01,1.522996401439454317e+01
1.696198913975421618e+01,1.523644231197001631e+01
1.698199485567305089e+01,1.479305584602156287e+01
1.700200057159188560e+01,1.537386698107020067e+01
1.702200628751071676e+01,1.616742844270178381e+01
1.704201200342955147e+01,1.702654615929748516e+01
1.706201771934838618e+01,1.673894499263577629e+01
1.708202343526722089e+01,1.787878554739078751e+01
1.710202915118605205e+01,1.812742241219543970e+01
1.712203486710488676e+01,1.846289453734024022e+01
1.714204058302372147e+01,1.899307372323981014e+01
1.716204629894255618e+01,2.009184741140970232e+01
1.718205201486139089e+01,2.053786950569885761e+01
1.720205773078022204e+01,2.162144225120305663e+01
1.722206344669905675e+01,2.172312035617954962e+01
1.724206916261789146e+01,2.192170873607022230e+01
1.726207487853672617e+01,2.303520963698659330e+01
1.728208059445555733e+01,2.359224824961185263e+01
1.730208631037439204e+01,2.439870745479121439e+01
1.732209202629322675e+01,2.504590776431329857e+01
1.734209774221206146e+01,2.605982870118264572e+01
1.736210345813089617e+01,2.706443673114667803e+01
1.738210917404973088e+01,2.732971490691137006e+01
1.740211488996856204e+01,2.883605672298548939e+01
1.742212060588739675e+01,2.927748483888574782e+01
1.744212632180623146e+01,2.978153506377143245e+01
1.746213203772506262e+01,3.087944120010488902e+01
1.748213775364389733e+01,3.152200306894594561e+01
1.750214346956273204e+01,3.214023858147493229e+01
1.752214918548156675e+01,3.284177884833031413e+01
1.754215490140040146e+01,3.340303945030149890e+01
1.756216061731923617e+01,3.478722633631679173e+01
1.758216633323806732e+01,3.516582264677482783e+01
1.760217204915690203e+01,3.548437606472448635e+01
1.762217776507573674e+01,3.619040725934054592e+01
1.764218348099457145e+01,3.685660467768113335e+01
1.766218919691340261e+01,3.626902597921100835e+01
1.768219491283223732e+01,3.627089967179948360e+01
1.770220062875107203e+01,3.616855607271889994e+01
1.772220634466990674e+01,3.591914608698154154e+01
1.774221206058874145e+01,3.580825522143547346e+01
1.776221777650757616e+01,3.471169638434947302e+01
1.778222349242640732e+01,3.403341565941088476e+01
1.780222920834524203e+01,3.309625529328312865e+01
1.782223492426407674e+01,3.211352433476835699e+01
1.784224064018290790e+01,3.077330102250065380e+01
1.786224635610174261e+01,2.964897660594583328e+01
1.788225207202057732e+01,2.847256259559078018e+01
1.790225778793941203e+01,2.747340470302439286e+01
1.792226350385824674e+01,2.654316631534428694e+01
1.794226921977708145e+01,2.533095587896129075e+01
1.796227493569591260e+01,2.406462292008234272e+01
