angle,intensity
1.000000000000000000e+01,7.999579763770725549e+01
1.002000571591883471e+01,9.890582168417452635e+01
1.004001143183766764e+01,9.813326564321907597e+01
1.006001714775650235e+01,9.641946681338075109e+01
1.008002286367533529e+01,9.421151301575139314e+01
1.010002857959417000e+01,9.238346010015033016e+01
1.012003429551300293e+01,9.075872281399878716e+01
1.014004001143183764e+01,8.771614076711534835e+01
1.016004572735067235e+01,8.522228119615533615e+01
1.018005144326950528e+01,8.243013812798255913e+01
1.020005715918833999e+01,7.946062849225958757e+01
1.022006287510717293e+01,7.688932367851030847e+01
1.024006859102600764e+01,7.352242700747397919e+01
1.026007430694484057e+01,7.115058193039149614e+01
1.028008002286367528e+01,6.788078183925766496e+01
1.030008573878250999e+01,6.572806049904028214e+01
1.032009145470134293e+01,6.264484707877215897e+01
1.034009717062017764e+01,5.898408693864710983e+01
1.036010288653901057e+01,5.727281405698072092e+01
1.038010860245784528e+01,5.379952130091729146e+01
1.040011431837667999e+01,5.050293093090306940e+01
1.042012003429551292e+01,4.832374457731396689e+01
1.044012575021434763e+01,4.572373664651374270e+01
1.046013146613318057e+01,4.339562165726057685e+01
1.048013718205201528e+01,4.145400542329009852e+01
1.050014289797084821e+01,3.961428191617707029e+01
1.052014861388968292e+01,3.693317707920001425e+01
1.054015432980851585e+01,3.603833848434168630e+01
1.056016004572735056e+01,3.456846600407775583e+01
1.058016576164618527e+01,3.397233210012836935e+01
1.060017147756501821e+01,3.271758288356826938e+01
1.062017719348385292e+01,3.215230719047713137e+01
1.064018290940268585e+01,3.095989895439225847e+01
1.066018862532152056e+01,3.158084004990513449e+01
1.068019434124035527e+01,3.090199937751509296e+01
1.070020005715918820e+01,3.111970205533167189e+01
1.072020577307802292e+01,3.156343255616535970e+01
1.074021148899685585e+01,3.097908103802400603e+01
1.076021720491569056e+01,3.136161199928217513e+01
1.078022292083452349e+01,3.135498572959693675e+01
1.080022863675335820e+01,3.144265108924881247e+01
1.082023435267219291e+01,3.186793036132903367e+01
1.084024006859102585e+01,3.273911074778597907e+01
1.086024578450986056e+01,3.301856288249808813e+01
1.088025150042869349e+01,3.296657940411351007e+01
1.090025721634752820e+01,3.298594669142511293e+01
1.092026293226636113e+01,3.317672569422781947e+01
1.094026864818519584e+01,3.457640202353405812e+01
1.096027436410403055e+01,3.451886201026285761e+01
1.098028008002286349e+01,3.494093057329629914e+01
1.100028579594169820e+01,3.523872184242399896e+01
1.102029151186053113e+01,3.577209530712016772e+01
1.104029722777936584e+01,3.629654655560147347e+01
1.106030294369819877e+01,3.732201674636556987e+01
1.108030865961703348e+01,3.742536210881305436e+01
1.110031437553586819e+01,3.787184534386062751e+01
1.112032009145470113e+01,3.810477663648742919e+01
1.114032580737353584e+01,3.907492166577764436e+01
1.116033152329236877e+01,3.974179730682256206e+01
1.118033723921120348e+01,3.967962440536165047e+01
1.120034295513003642e+01,4.005812447867440085e+01
1.122034867104887113e+01,4.002613824447435320e+01
1.124035438696770584e+01,4.095828105719294854e+01
1.126036010288653877e+01,4.192070016790646747e+01
1.128036581880537348e+01,4.221792276967254764e+01
1.130037153472420641e+01,4.260984306203404515e+01
1.132037725064304112e+01,4.368168686041087057e+01
1.134038296656187583e+01,4.362912783489018409e+01
1.136038868248070877e+01,4.414103762153391131e+01
1.138039439839954348e+01,4.436911457006760884e+01
1.140040011431837641e+01,4.516312926182416732e+01
1.142040583023721112e+01,4.526356679470970334e+01
1.144041154615604405e+01,4.401236374779215055e+01
1.146041726207487876e+01,4.491176690773789915e+01
1.148042297799371170e+01,4.478430329927235221e+01
1.150042869391254641e+01,4.449259789751479133e+01
1.152043440983138112e+01,4.407240063545102515e+01
1.154044012575021405e+01,4.404594444246421858e+01
1.156044584166904876e+01,4.369973089738812888e+01
1.158045155758788169e+01,4.350595955155675654e+01
1.160045727350671640e+01,4.218382083388355852e+01
1.162046298942555111e+01,4.118181193992393219e+01
1.164046870534438405e+01,4.059777408878731109e+01
1.166047442126321876e+01,3.854872899297190969e+01
1.168048013718205169e+01,3.832603557497380109e+01
1.170048585310088640e+01,3.585452749266490002e+01
1.172049156901971934e+01,3.537893811980029568e+01
1.174049728493855405e+01,3.306173606390225927e+01
1.176050300085738698e+01,3.170112063312077311e+01
1.178050871677622169e+01,2.948058206585799468e+01
1.180051443269505640e+01,2.778080338189553800e+01
1.182052014861388933e+01,2.722371311997797960e+01
1.184052586453272404e+01,2.611506668681499477e+01
1.186053158045155698e+01,2.329146700169307849e+01
1.188053729637039169e+01,2.181374764486806583e+01
1.190054301228922640e+01,2.071343070284595100e+01
1.192054872820805933e+01,1.875788518514772463e+01
1.194055444412689404e+01,1.819005629654636635e+01
1.196056016004572697e+01,1.643879620207536973e+01
1.198056587596456168e+01,1.488681201191962700e+01
1.200057159188339639e+01,1.447802936477030222e+01
1.202057730780222933e+01,1.325098710271211822e+01
1.204058302372106226e+01,1.209724334910258925e+01
1.206058873963989697e+01,1.167604529486713716e+01
1.208059445555873168e+01,1.038106477509345282e+01
1.210060017147756461e+01,9.793669401511825967e+00
1.212060588739639932e+01,1.015138514430270433e+01
1.214061160331523226e+01,9.619942078129849250e+00
1.216061731923406697e+01,9.420061984873019156e+00
1.218062303515290168e+01,8.796607177252163012e+00
1.220062875107173461e+01,9.149948861361909991e+00
1.222063446699056932e+01,8.347464977652613527e+00
1.224064018290940226e+01,8.567616040228809737e+00
1.226064589882823697e+01,8.387029283604157115e+00
1.228065161474707168e+01,8.725910965956693133e+00
1.230065733066590461e+01,7.994613240132069087e+00
1.232066304658473754e+01,8.069725073083017008e+00
1.234066876250357225e+01,8.570248151046687468e+00
1.236067447842240696e+01,8.415222160557618736e+00
1.238068019434123990e+01,7.435774499388045911e+00
1.240068591026007461e+01,7.740042708082857104e+00
1.242069162617890754e+01,8.037697531445161303e+00
1.244069734209774225e+01,6.671693853628630322e+00
1.246070305801657696e+01,7.726820687808329424e+00
1.248070877393540989e+01,7.779769434607613832e+00
1.250071448985424460e+01,7.298714396439704544e+00
1.252072020577307754e+01,7.685761865392459313e+00
1.254072592169191225e+01,7.345494604771600322e+00
1.256073163761074696e+01,6.781062343046450280e+00
1.258073735352957989e+01,6.265385750668924558e+00
1.260074306944841460e+01,7.099205459449308364e+00
1.262074878536724754e+01,6.571930606631946503e+00
1.264075450128608225e+01,6.667669267487161378e+00
1.266076021720491518e+01,7.110850396549025731e+00
1.268076593312374989e+01,5.917794145262996963e+00
1.270077164904258282e+01,6.491020910189219784e+00
1.272077736496141753e+01,6.637665294553269035e+00
1.274078308088025224e+01,5.477976199743539887e+00
1.276078879679908518e+01,5.752593790127748186e+00
1.278079451271791989e+01,5.586925738825669008e+00
1.280080022863675282e+01,5.646385141791314233e+00
1.282080594455558753e+01,5.283364191681823918e+00
1.284081166047442224e+01,5.477868605371911670e+00
1.286081737639325517e+01,4.923362063754781914e+00
1.288082309231208988e+01,5.454212581068674126e+00
1.290082880823092282e+01,4.502244633398778006e+00
1.292083452414975753e+01,5.125553150176355821e+00
1.294084024006859224e+01,4.664557419448938091e+00
1.296084595598742517e+01,5.143039152681319059e+00
1.298085167190625810e+01,4.718071347222460687e+00
1.300085738782509281e+01,4.916884199335221695e+00
1.302086310374392752e+01,4.311373888137763899e+00
1.304086881966276046e+01,5.123406941748896770e+00
1.306087453558159517e+01,3.839558457723466933e+00
1.308088025150042810e+01,4.866510848544445267e+00
1.310088596741926281e+01,4.221557282448912929e+00
1.312089168333809752e+01,4.998572405344217984e+00
1.314089739925693046e+01,4.491919375535654346e+00
1.316090311517576517e+01,5.031733571056595800e+00
1.318090883109459810e+01,4.370704453578640347e+00
1.320091454701343281e+01,4.258046893139554534e+00
1.322092026293226752e+01,4.589264890487976700e+00
1.324092597885110045e+01,4.807321753259758523e+00
1.326093169476993339e+01,4.439372447946624334e+00
1.328093741068876810e+01,3.624755321143941611e+00
1.330094312660760281e+01,4.330078649697967741e+00
1.332094884252643574e+01,4.057084899132911815e+00
1.334095455844527045e+01,4.246187687557060997e+00
1.336096027436410338e+01,4.103851346908140130e+00
1.338096599028293809e+01,3.891956880754399606e+00
1.340097170620177280e+01,4.296148337546906504e+00
1.342097742212060574e+01,4.397190870215007763e+00
1.344098313803944045e+01,4.960038488493951014e+00
1.346098885395827338e+01,4.552626255290694424e+00
1.348099456987710809e+01,3.724320441684215499e+00
1.350100028579594280e+01,3.802054964250836555e+00
1.352100600171477573e+01,3.996189065340194801e+00
1.354101171763361044e+01,3.461109045595704536e+00
1.356101743355244338e+01,4.129374969583547106e+00
1.358102314947127809e+01,4.184747153498598493e+00
1.360102886539011102e+01,3.639103335310887477e+00
1.362103458130894573e+01,4.500914314344364620e+00
1.364104029722777867e+01,4.076134855755713104e+00
1.366104601314661338e+01,3.623576185530327010e+00
1.368105172906544809e+01,3.984320434169307035e+00
1.370105744498428102e+01,3.997943168910641276e+00
1.372106316090311573e+01,3.427786163619836124e+00
1.374106887682194866e+01,3.738125721601268658e+00
1.376107459274078337e+01,4.622709144448626795e+00
1.378108030865961808e+01,4.412039750144361783e+00
1.380108602457845102e+01,3.866815404089280150e+00
1.382109174049728573e+01,3.737582081237595055e+00
1.384109745641611866e+01,4.148243956485421435e+00
1.386110317233495337e+01,3.546373100683535284e+00
1.388110888825378808e+01,3.731902748876606779e+00
1.390111460417262101e+01,3.755487605602665813e+00
1.392112032009145395e+01,4.025350514958118353e+00
1.394112603601028866e+01,3.725210477607214798e+00
1.396113175192912337e+01,3.883378117822643638e+00
1.398113746784795630e+01,3.441350853334373738e+00
1.400114318376679101e+01,4.023841696019450964e+00
1.402114889968562395e+01,3.739272015867224574e+00
1.404115461560445866e+01,3.923098422646659422e+00
1.406116033152329337e+01,4.267119432161599946e+00
1.408116604744212630e+01,4.104471614590877060e+00
1.410117176336095923e+01,3.174899716821566908e+00
1.412117747927979394e+01,4.018301488834312707e+00
1.414118319519862865e+01,4.101360821847451987e+00
1.416118891111746336e+01,3.134814844708761150e+00
1.418119462703629630e+01,4.136773099510384633e+00
1.420120034295512923e+01,3.607757723735319111e+00
1.422120605887396394e+01,4.505616853985030090e+00
1.424121177479279865e+01,3.112719784617316687e+00
1.426121749071163336e+01,4.155488210279125738e+00
1.428122320663046629e+01,3.910394008350281503e+00
1.430122892254929923e+01,4.474323679929760544e+00
1.432123463846813394e+01,3.303860351947911056e+00
1.434124035438696865e+01,3.409630232269918793e+00
1.436124607030580158e+01,3.570853097746661486e+00
1.438125178622463629e+01,3.872207510771658256e+00
1.440125750214346922e+01,4.623963027519918612e+00
1.442126321806230393e+01,3.819348789042203762e+00
1.444126893398113864e+01,3.558341623738229043e+00
1.446127464989997158e+01,4.819772189701996723e+00
1.448128036581880451e+01,4.666470162792569987e+00
1.450128608173763922e+01,4.647329702716456623e+00
1.452129179765647393e+01,4.190597396318112011e+00
1.454129751357530864e+01,4.077699689949862538e+00
1.456130322949414158e+01,4.129485930877557998e+00
1.458130894541297451e+01,4.126306740419458663e+00
1.460131466133180922e+01,4.297282234838064596e+00
1.462132037725064393e+01,3.991594960428287209e+00
1.464132609316947686e+01,5.059015962382165554e+00
1.466133180908831157e+01,4.495448198515742178e+00
1.468133752500714451e+01,4.735620842500016359e+00
1.470134324092597922e+01,3.698381584915472864e+00
1.472134895684481393e+01,4.508558411100550778e+00
1.474135467276364686e+01,4.617558056677728118e+00
1.476136038868247979e+01,4.353798163138511867e+00
1.478136610460131450e+01,4.201096810469094223e+00
1.480137182052014921e+01,4.237953686904981865e+00
1.482137753643898392e+01,5.146390734447797044e+00
1.484138325235781686e+01,4.452779486258453545e+00
1.486138896827664979e+01,4.477619418086264957e+00
1.488139468419548450e+01,4.299486517086061887e+00
1.490140040011431921e+01,4.370877437844468361e+00
1.492140611603315392e+01,5.364436233720123681e+00
1.494141183195198685e+01,5.526105364573037804e+00
1.496141754787081979e+01,5.322557502298533194e+00
1.498142326378965450e+01,5.536232377547653627e+00
1.500142897970848921e+01,4.509339930648571304e+00
1.502143469562732214e+01,5.326375023363244310e+00
1.504144041154615508e+01,5.538978704620697080e+00
1.506144612746498979e+01,5.319898905552632229e+00
1.508145184338382450e+01,5.680029271693423532e+00
1.510145755930265921e+01,6.553048535603038793e+00
1.512146327522149214e+01,5.152506396265266631e+00
1.514146899114032507e+01,6.630997736016749577e+00
1.516147470705915978e+01,6.132689833929660495e+00
1.518148042297799449e+01,6.203346251041226722e+00
1.520148613889682920e+01,6.227654863284945108e+00
1.522149185481566214e+01,6.223402325427372261e+00
1.524149757073449507e+01,6.254250247238293703e+00
1.526150328665332978e+01,6.110794946878407075e+00
1.528150900257216449e+01,7.095600373844031417e+00
1.530151471849099742e+01,7.125706554983008090e+00
1.532152043440983036e+01,7.177712114436396895e+00
1.534152615032866507e+01,6.736375514614227455e+00
1.536153186624749978e+01,7.763291053086450511e+00
1.538153758216633449e+01,8.031979503899414397e+00
1.540154329808516742e+01,7.245075231252807058e+00
1.542154901400400036e+01,7.591596653250634930e+00
1.544155472992283507e+01,8.281642845675470710e+00
1.546156044584166978e+01,7.933892228048295081e+00
1.548156616176050449e+01,8.265741025707207257e+00
1.550157187767933742e+01,9.057834448049719711e+00
1.552157759359817035e+01,8.651317456870820877e+00
1.554158330951700506e+01,9.435664865076397234e+00
1.556158902543583977e+01,9.332157814018700037e+00
1.558159474135467271e+01,9.951829625418405101e+00
1.560160045727350742e+01,9.610465530485969410e+00
1.562160617319234035e+01,1.010568423819544748e+01
1.564161188911117506e+01,1.093906933746045951e+01
1.566161760503000977e+01,1.117318197290718906e+01
1.568162332094884270e+01,1.015914950220375346e+01
1.570162903686767564e+01,1.062511649077446485e+01
1.572163475278651035e+01,1.129643565765691982e+01
1.574164046870534506e+01,1.120165110106323780e+01
1.576164618462417977e+01,1.231993694399348449e+01
1.578165190054301270e+01,1.204614992875868928e+01
1.580165761646184563e+01,1.236569394511800724e+01
1.582166333238068034e+01,1.234122801845327366e+01
1.584166904829951505e+01,1.273502465658397043e+01
1.586167476421834799e+01,1.318942242584220281e+01
1.588168048013718270e+01,1.338414853689578621e+01
1.590168619605601563e+01,1.378957362321827418e+01
1.592169191197485034e+01,1.390593235976665909e+01
1.594169762789368505e+01,1.527166194403114119e+01
1.596170334381251799e+01,1.544621700034107192e+01
1.598170905973135092e+01,1.523457334848283296e+01
1.600171477565018563e+01,1.605876421306555102e+01
1.602172049156902034e+01,1.597311095403327386e+01
1.604172620748785505e+01,1.729703749340196950e+01
1.606173192340668976e+01,1.699463558710491995e+01
1.608173763932552092e+01,1.746034247390797489e+01
1.610174335524435563e+01,1.773875722841790648e+01
1.612174907116319034e+01,1.818070397043922171e+01
1.614175478708202505e+01,1.882392041546852113e+01
1.616176050300085620e+01,1.862526262882932926e+01
1.618176621891969091e+01,1.992709062312417245e+01
1.620177193483852562e+01,1.934768723418768133e+01
1.622177765075736033e+01,1.973588059086311830e+01
1.624178336667619504e+01,1.972129195721384320e+01
1.626178908259502620e+01,2.093104398452919668e+01
1.628179479851386091e+01,2.114971556193663460e+01
1.630180051443269562e+01,2.166483173957516684e+01
1.632180623035153033e+01,2.087989338677295237e+01
1.634181194627036149e+01,2.154527092179019121e+01
1.636181766218919620e+01,2.096102231927714499e+01
1.638182337810803091e+01,2.098871123930076976e+01
1.640182909402686562e+01,2.167639394978501599e+01
1.642183480994570033e+01,2.054782439186531207e+01
1.644184052586453504e+01,2.073510465894363719e+01
1.646184624178336620e+01,2.118705929910797892e+01
1.648185195770220091e+01,2.001979472118427594e+01
1.650185767362103562e+01,2.008561859006490380e+01
1.652186338953986677e+01,1.977236871341426649e+01
1.654186910545870148e+01,1.880944736939972728e+01
1.656187482137753619e+01,1.841816375443971054e+01
1.658188053729637090e+01,1.804760876948773429e+01
1.660188625321520561e+01,1.774528709441160856e+01
1.662189196913404032e+01,1.687275262124007824e+01
1.664189768505287148e+01,1.695438453192753059e+01
1.666190340097170619e+01,1.636660317919240626e+01
1.668190911689054090e+01,1.692798577982637909e+01
1.670191483280937561e+01,1.630526006806969264e+01
1.672192054872820677e+01,1.696772639167156882e+01
1.674192626464704148e+01,1.638101648564504487e+01
1.676193198056587619e+01,1.611101330876089577e+01
1.678193769648471090e+01,1.677160133792330754e+01
1.680194341240354561e+01,1.580482163674406593e+01
1.682194912832238032e+01,1.619301941328878769e+01
1.684195484424121148e+01,1.672467588206368205e+01
1.686196056016004619e+01,1.551535696548551257e+01
1.688196627607888090e+01,1.495461065883509377e+01
1.690197199199771205e+01,1.603319757342042351e+01
1.692197770791654676e+01,1.452933990612842230e+01
1.694198342383538147e+01,1.412775582581098988e+01
1.696198913975421618e+01,1.447732051595227176e+01
1.698199485567305089e+01,1.394939975070196780e+01
1.700200057159188560e+01,1.429850467043897666e+01
1.702200628751071676e+01,1.265402254728870091e+01
1.704201200342955147e+01,1.279053875746579649e+01
1.706201771934838618e+01,1.280596594924539744e+01
1.708202343526722089e+01,1.225411367020244136e+01
1.710202915118605205e+01,1.119268664843599481e+01
1.712203486710488676e+01,1.085358160161619523e+01
1.714204058302372147e+01,1.054406331193846036e+01
1.716204629894255618e+01,1.057232421098859732e+01
1.718205201486139089e+01,9.874952268198413208e+00
1.720205773078022204e+01,9.979347184818184502e+00
1.722206344669905675e+01,9.447472305941854387e+00
1.724206916261789146e+01,9.059850962729761648e+00
1.726207487853672617e+01,9.799774163361211876e+00
1.728208059445555733e+01,9.171670715724324907e+00
1.730208631037439204e+01,9.201188233163268393e+00
1.732209202629322675e+01,8.504390720074020749e+00
1.734209774221206146e+01,8.459427509351179708e+00
1.736210345813089617e+01,8.163536076136754360e+00
1.738210917404973088e+01,8.114768925652663611e+00
1.740211488996856204e+01,7.843069864741115893e+00
1.742212060588739675e+01,7.273051311835075694e+00
1.744212632180623146e+01,6.733391480293956732e+00
1.746213203772506262e+01,6.998885685226126974e+00
1.748213775364389733e+01,6.878211459658296612e+00
1.750214346956273204e+01,7.475739978370206984e+00
1.752214918548156675e+01,6.908942818751326875e+00
1.754215490140040146e+01,6.282359304708064585e+00
1.756216061731923617e+01,6.736556845580969011e+00
1.758216633323806732e+01,7.249476007242638964e+00
1.760217204915690203e+01,7.006040208628927957e+00
1.762217776507573674e+01,6.063460258217290288e+00
1.764218348099457145e+01,6.467301335076571789e+00
1.766218919691340261e+01,5.739156806358566953e+00
1.768219491283223732e+01,7.276801568201228143e+00
1.770220062875107203e+01,6.673166598279149042e+00
1.772220634466990674e+01,6.566524554384308487e+00
1.774221206058874145e+01,6.400309013834744043e+00
1.776221777650757616e+01,6.758780900645839473e+00
1.778222349242640732e+01,7.830642332299671438e+00
1.780222920834524203e+01,6.628523333884749569e+00
1.782223492426407674e+01,7.133600877536336426e+00
1.784224064018290790e+01,8.273126395355333784e+00
1.786224635610174261e+01,6.884181774465316650e+00
1.788225207202057732e+01,6.963040003358983654e+00
1.790225778793941203e+01,8.095492689590134461e+00
1.792226350385824674e+01,8.704014523945135196e+00
1.794226921977708145e+01,8.335502970005352452e+00
1.796227493569591260e+01,8.376575617804647322e+00
