angle,intensity
1.000000000000000000e+01,5.872751592114234853e+01
1.002000571591883471e+01,5.967213258037108403e+01
1.004001143183766764e+01,6.085163204135550785e+01
1.006001714775650235e+01,6.217853460852562364e+01
1.008002286367533529e+01,6.322831215031543195e+01
1.010002857959417000e+01,6.440237739848654996e+01
1.012003429551300293e+01,6.526754105260097560e+01
1.014004001143183764e+01,6.718131888277807207e+01
1.016004572735067235e+01,6.840431890925543712e+01
1.018005144326950528e+01,7.008235892310393922e+01
1.020005715918833999e+01,7.057252813776483436e+01
1.022006287510717293e+01,7.133452984606903158e+01
1.024006859102600764e+01,7.435453563499542895e+01
1.026007430694484057e+01,7.525864072378091407e+01
1.028008002286367528e+01,7.595335115740240894e+01
1.030008573878250999e+01,7.812350027838606081e+01
1.032009145470134293e+01,7.950114631462051307e+01
1.034009717062017764e+01,8.067984787079620901e+01
1.036010288653901057e+01,8.240407904963478813e+01
1.038010860245784528e+01,8.356356637642248586e+01
1.040011431837667999e+01,8.522842499729783583e+01
1.042012003429551292e+01,8.666595332883549929e+01
1.044012575021434763e+01,8.845184380223142284e+01
1.046013146613318057e+01,8.975905406795639863e+01
1.048013718205201528e+01,9.086600415848860735e+01
1.050014289797084821e+01,9.152440641429814150e+01
1.052014861388968292e+01,9.274858726544196941e+01
1.054015432980851585e+01,9.390695165880818251e+01
1.056016004572735056e+01,9.563409070059948647e+01
1.058016576164618527e+01,9.657318350031623311e+01
1.060017147756501821e+01,9.829143762397625039e+01
1.062017719348385292e+01,9.891573407456817790e+01
1.064018290940268585e+01,9.801410467601527898e+01
1.066018862532152056e+01,9.991584067937341729e+01
1.068019434124035527e+01,1.000000000000000000e+02
1.070020005715918820e+01,9.848233900493264059e+01
1.072020577307802292e+01,9.905684791818654844e+01
1.074021148899685585e+01,9.743858982837502936e+01
1.076021720491569056e+01,9.742436541624789470e+01
1.078022292083452349e+01,9.543661203977760010e+01
1.080022863675335820e+01,9.435845094986258630e+01
1.082023435267219291e+01,9.328536331036555396e+01
1.084024006859102585e+01,8.907504216823635090e+01
1.086024578450986056e+01,8.712147599279164467e+01
1.088025150042869349e+01,8.289499624971571734e+01
1.090025721634752820e+01,7.861174672971354482e+01
1.092026293226636113e+01,7.396071274756133107e+01
1.094026864818519584e+01,6.962220519889355330e+01
1.096027436410403055e+01,6.302477719718145721e+01
1.098028008002286349e+01,5.787190389021588288e+01
1.100028579594169820e+01,5.315334503247011355e+01
1.102029151186053113e+01,4.694361082171545263e+01
1.104029722777936584e+01,4.368666638192106433e+01
1.106030294369819877e+01,3.840980782743578459e+01
1.108030865961703348e+01,3.426795198903511164e+01
1.110031437553586819e+01,3.060797552055610637e+01
1.112032009145470113e+01,2.890137685293561987e+01
1.114032580737353584e+01,2.707727680373649903e+01
1.116033152329236877e+01,2.550069333196912424e+01
1.118033723921120348e+01,2.355243355230371094e+01
1.120034295513003642e+01,2.197299055127355416e+01
1.122034867104887113e+01,2.080935759901652204e+01
1.124035438696770584e+01,2.012746072967422251e+01
1.126036010288653877e+01,2.040636204579261559e+01
1.128036581880537348e+01,2.030289682128096374e+01
1.130037153472420641e+01,1.965384473274627553e+01
1.132037725064304112e+01,2.019141924319896475e+01
1.134038296656187583e+01,2.047850527445020674e+01
1.136038868248070877e+01,2.108814317920072767e+01
1.138039439839954348e+01,2.043982925810024653e+01
1.140040011431837641e+01,2.070725653755359374e+01
1.142040583023721112e+01,2.100167195529237674e+01
1.144041154615604405e+01,2.167408404346712913e+01
1.146041726207487876e+01,2.012970272641165437e+01
1.148042297799371170e+01,2.071701927025666734e+01
1.150042869391254641e+01,2.215796221911400110e+01
1.152043440983138112e+01,2.153364853058805295e+01
1.154044012575021405e+01,2.198621483198719062e+01
1.156044584166904876e+01,2.204060865433784500e+01
1.158045155758788169e+01,2.210192714656585977e+01
1.160045727350671640e+01,2.213484807968684365e+01
1.162046298942555111e+01,2.289582506610671331e+01
1.164046870534438405e+01,2.466636671526156732e+01
1.166047442126321876e+01,2.447889450606167827e+01
1.168048013718205169e+01,2.378865240356918775e+01
1.170048585310088640e+01,2.486531325862505781e+01
1.172049156901971934e+01,2.515990756632006864e+01
1.174049728493855405e+01,2.532400855420575070e+01
1.176050300085738698e+01,2.597805953323491224e+01
1.178050871677622169e+01,2.576657198236349444e+01
1.180051443269505640e+01,2.613993430852950439e+01
1.182052014861388933e+01,2.831086451907986401e+01
1.184052586453272404e+01,2.830664600473036785e+01
1.186053158045155698e+01,2.926232397072889668e+01
1.188053729637039169e+01,2.954549584308713861e+01
1.190054301228922640e+01,3.034370993409261175e+01
1.192054872820805933e+01,2.948958540473458356e+01
1.194055444412689404e+01,2.999383184680139181e+01
1.196056016004572697e+01,3.077085764370009713e+01
1.198056587596456168e+01,3.168026975664486855e+01
1.200057159188339639e+01,3.278765072176255302e+01
1.202057730780222933e+01,3.291578227447864435e+01
1.204058302372106226e+01,3.285930943141600125e+01
1.206058873963989697e+01,3.403821749720195555e+01
1.208059445555873168e+01,3.368015010433882139e+01
1.210060017147756461e+01,3.466969040059822049e+01
1.212060588739639932e+01,3.483616529477756529e+01
1.214061160331523226e+01,3.668030046813554179e+01
1.216061731923406697e+01,3.646362870143739343e+01
1.218062303515290168e+01,3.773439276909174822e+01
1.220062875107173461e+01,3.735361885950535310e+01
1.222063446699056932e+01,3.857687141536325726e+01
1.224064018290940226e+01,3.902765953455759984e+01
1.226064589882823697e+01,3.911119042366128440e+01
1.228065161474707168e+01,3.887644740017959322e+01
1.230065733066590461e+01,3.822630592916409142e+01
1.232066304658473754e+01,3.796644339649742506e+01
1.234066876250357225e+01,3.817341791387357119e+01
1.236067447842240696e+01,3.776146321512783999e+01
1.238068019434123990e+01,3.684572259901115387e+01
1.240068591026007461e+01,3.657044193606250104e+01
1.242069162617890754e+01,3.672741925736622903e+01
1.244069734209774225e+01,3.481870633062026599e+01
1.246070305801657696e+01,3.384951137051308478e+01
1.248070877393540989e+01,3.268242956194766435e+01
1.250071448985424460e+01,2.954224714420906750e+01
1.252072020577307754e+01,2.922442652996302215e+01
1.254072592169191225e+01,2.723936654039255956e+01
1.256073163761074696e+01,2.413426698712306973e+01
1.258073735352957989e+01,2.264794427101207930e+01
1.260074306944841460e+01,2.035053598605055925e+01
1.262074878536724754e+01,1.864216586623374994e+01
1.264075450128608225e+01,1.584806405113243954e+01
1.266076021720491518e+01,1.502144535208524445e+01
1.268076593312374989e+01,1.337525040839771862e+01
1.270077164904258282e+01,1.195148842089626484e+01
1.272077736496141753e+01,9.563527235291871875e+00
1.274078308088025224e+01,9.333034185303086261e+00
1.276078879679908518e+01,8.844515602912936814e+00
1.278079451271791989e+01,8.431883323496133897e+00
1.280080022863675282e+01,7.211388536187564036e+00
1.282080594455558753e+01,7.927571561718854021e+00
1.284081166047442224e+01,6.400103019581311337e+00
1.286081737639325517e+01,6.428065132546526783e+00
1.288082309231208988e+01,7.119120345720680199e+00
1.290082880823092282e+01,7.094817434581501381e+00
1.292083452414975753e+01,6.297190357141259298e+00
1.294084024006859224e+01,6.204559291552757649e+00
1.296084595598742517e+01,6.073746849041699924e+00
1.298085167190625810e+01,5.690297701054941371e+00
1.300085738782509281e+01,4.993238380296266321e+00
1.302086310374392752e+01,6.408375642732936583e+00
1.304086881966276046e+01,5.425676979218282625e+00
1.306087453558159517e+01,4.861562852982573624e+00
1.308088025150042810e+01,6.166782634278679787e+00
1.310088596741926281e+01,5.168352434911739124e+00
1.312089168333809752e+01,5.879052297533498006e+00
1.314089739925693046e+01,5.353981165599405401e+00
1.316090311517576517e+01,4.889598823217901291e+00
1.318090883109459810e+01,4.879054019260472330e+00
1.320091454701343281e+01,5.562290126731073592e+00
1.322092026293226752e+01,6.108618042941159842e+00
1.324092597885110045e+01,5.257155826139083388e+00
1.326093169476993339e+01,5.156256623243031356e+00
1.328093741068876810e+01,5.160690006404338170e+00
1.330094312660760281e+01,5.120194885369414806e+00
1.332094884252643574e+01,5.899114660023943024e+00
1.334095455844527045e+01,4.966337225489506402e+00
1.336096027436410338e+01,5.209504621189767981e+00
1.338096599028293809e+01,4.990768398775210279e+00
1.340097170620177280e+01,4.500685469945540085e+00
1.342097742212060574e+01,4.891812350703068191e+00
1.344098313803944045e+01,5.331892552994580647e+00
1.346098885395827338e+01,4.099296693149162785e+00
1.348099456987710809e+01,5.727043956385769796e+00
1.350100028579594280e+01,4.015119203478692889e+00
1.352100600171477573e+01,4.343919360376774286e+00
1.354101171763361044e+01,5.118824369648391048e+00
1.356101743355244338e+01,5.242287901865117838e+00
1.358102314947127809e+01,4.197371878265543366e+00
1.360102886539011102e+01,5.354081368676230746e+00
1.362103458130894573e+01,4.346739514055739662e+00
1.364104029722777867e+01,4.039718342085018676e+00
1.366104601314661338e+01,5.740504648614872529e+00
1.368105172906544809e+01,4.918079769840660198e+00
1.370105744498428102e+01,5.045290566993092973e+00
1.372106316090311573e+01,4.692589893273455104e+00
1.374106887682194866e+01,4.869661546201614399e+00
1.376107459274078337e+01,5.307695050729493325e+00
1.378108030865961808e+01,5.227492542885158855e+00
1.380108602457845102e+01,4.746461086917083350e+00
1.382109174049728573e+01,5.632068860678575817e+00
1.384109745641611866e+01,4.256274980427234844e+00
1.386110317233495337e+01,4.784714801483413993e+00
1.388110888825378808e+01,4.768340098711669306e+00
1.390111460417262101e+01,5.612482966294424891e+00
1.392112032009145395e+01,4.651224104129097370e+00
1.394112603601028866e+01,4.637136358573354933e+00
1.396113175192912337e+01,4.394688074743744011e+00
1.398113746784795630e+01,4.524770269316230831e+00
1.400114318376679101e+01,4.363172779337587848e+00
1.402114889968562395e+01,3.802108313925604666e+00
1.404115461560445866e+01,4.199177298487485999e+00
1.406116033152329337e+01,4.435598416975846447e+00
1.408116604744212630e+01,5.527633176650599722e+00
1.410117176336095923e+01,3.770771053488312319e+00
1.412117747927979394e+01,5.294267201437030224e+00
1.414118319519862865e+01,4.810981784897045976e+00
1.416118891111746336e+01,5.347491892488680065e+00
1.418119462703629630e+01,5.078763208965031417e+00
1.420120034295512923e+01,3.641067603295616628e+00
1.422120605887396394e+01,3.918642956363356689e+00
1.424121177479279865e+01,5.394264936436448998e+00
1.426121749071163336e+01,3.974510809054052185e+00
1.428122320663046629e+01,4.577607048406376222e+00
1.430122892254929923e+01,4.694628127009147889e+00
1.432123463846813394e+01,4.163952718941936304e+00
1.434124035438696865e+01,4.740565132938358239e+00
1.436124607030580158e+01,5.222673865832588191e+00
1.438125178622463629e+01,5.435468856857046838e+00
1.440125750214346922e+01,4.003606584465459584e+00
1.442126321806230393e+01,4.548162183778400092e+00
1.444126893398113864e+01,5.136984900822780808e+00
1.446127464989997158e+01,3.704284844721443370e+00
1.448128036581880451e+01,4.173899688825840393e+00
1.450128608173763922e+01,4.949966220513092097e+00
1.452129179765647393e+01,3.980346297318850812e+00
1.454129751357530864e+01,3.886290837831215761e+00
1.456130322949414158e+01,4.558454189416962343e+00
1.458130894541297451e+01,5.100907421449710988e+00
1.460131466133180922e+01,4.106264111247887705e+00
1.462132037725064393e+01,4.703286584677867310e+00
1.464132609316947686e+01,4.512151448737453663e+00
1.466133180908831157e+01,4.948753008832549760e+00
1.468133752500714451e+01,4.747882639676239691e+00
1.470134324092597922e+01,3.721649596321005671e+00
1.472134895684481393e+01,3.542597365121078479e+00
1.474135467276364686e+01,4.770478369161682330e+00
1.476136038868247979e+01,4.835161733202443912e+00
1.478136610460131450e+01,4.106663838054963378e+00
1.480137182052014921e+01,3.951702166266521488e+00
1.482137753643898392e+01,3.857009029949819201e+00
1.484138325235781686e+01,4.896407951445690188e+00
1.486138896827664979e+01,3.928751115826137674e+00
1.488139468419548450e+01,3.433314633965477203e+00
1.490140040011431921e+01,4.038499253868625516e+00
1.492140611603315392e+01,5.217338061426216811e+00
1.494141183195198685e+01,4.738969221390479269e+00
1.496141754787081979e+01,3.605589440473144780e+00
1.498142326378965450e+01,4.071243227523352992e+00
1.500142897970848921e+01,3.637646793785495714e+00
1.502143469562732214e+01,4.890792222688585156e+00
1.504144041154615508e+01,3.821825703416851017e+00
1.506144612746498979e+01,4.443349208896092861e+00
1.508145184338382450e+01,4.871107320490223991e+00
1.510145755930265921e+01,4.740334661222019186e+00
1.512146327522149214e+01,4.760025910695977025e+00
1.514146899114032507e+01,3.952138330243587294e+00
1.516147470705915978e+01,4.216412849738242485e+00
1.518148042297799449e+01,5.037863323962047168e+00
1.520148613889682920e+01,4.518456172476645882e+00
1.522149185481566214e+01,5.069613266592289946e+00
1.524149757073449507e+01,4.143524550262736916e+00
1.526150328665332978e+01,4.746184174415066792e+00
1.528150900257216449e+01,3.499787949998656167e+00
1.530151471849099742e+01,3.597313929420247192e+00
1.532152043440983036e+01,4.874013504263827734e+00
1.534152615032866507e+01,3.387378174085403426e+00
1.536153186624749978e+01,3.879048815653802329e+00
1.538153758216633449e+01,3.485851554440975164e+00
1.540154329808516742e+01,4.247513396531744867e+00
1.542154901400400036e+01,3.373293715581786145e+00
1.544155472992283507e+01,4.049365980883850469e+00
1.546156044584166978e+01,4.427003520633484790e+00
1.548156616176050449e+01,3.851962770121239554e+00
1.550157187767933742e+01,4.290634745586330290e+00
1.552157759359817035e+01,3.946113788490533292e+00
1.554158330951700506e+01,4.950704512880887087e+00
1.556158902543583977e+01,3.514388812541461515e+00
1.558159474135467271e+01,3.386785364830657841e+00
1.560160045727350742e+01,4.831068149021370495e+00
1.562160617319234035e+01,4.776261422289956649e+00
1.564161188911117506e+01,4.513228745420565069e+00
1.566161760503000977e+01,4.487860993183312885e+00
1.568162332094884270e+01,3.712286403053717265e+00
1.570162903686767564e+01,3.349974617925774112e+00
1.572163475278651035e+01,3.358190589451848673e+00
1.574164046870534506e+01,4.232884940594805023e+00
1.576164618462417977e+01,4.722704080053862441e+00
1.578165190054301270e+01,3.591353682144247994e+00
1.580165761646184563e+01,4.866901686469733868e+00
1.582166333238068034e+01,4.795098768692726665e+00
1.584166904829951505e+01,4.439518871292195357e+00
1.586167476421834799e+01,3.830631261652558628e+00
1.588168048013718270e+01,3.627151036635198000e+00
1.590168619605601563e+01,4.021537571929448163e+00
1.592169191197485034e+01,4.978594529415400594e+00
1.594169762789368505e+01,5.015350755634240265e+00
1.596170334381251799e+01,3.400835615130077372e+00
1.598170905973135092e+01,4.152510173122260007e+00
1.600171477565018563e+01,4.147135529883970051e+00
1.602172049156902034e+01,4.679832352821943431e+00
1.604172620748785505e+01,3.877491271727171007e+00
1.606173192340668976e+01,5.209092081224531157e+00
1.608173763932552092e+01,3.784337800753233783e+00
1.610174335524435563e+01,4.497635930189323616e+00
1.612174907116319034e+01,5.199106310207692871e+00
1.614175478708202505e+01,3.509880656868124227e+00
1.616176050300085620e+01,4.156435876225825332e+00
1.618176621891969091e+01,5.297789220781800701e+00
1.620177193483852562e+01,4.514594303506632045e+00
1.622177765075736033e+01,5.397453671474357506e+00
1.624178336667619504e+01,4.111462629032835991e+00
1.626178908259502620e+01,4.442000814734743841e+00
1.628179479851386091e+01,4.043910008530430922e+00
1.630180051443269562e+01,3.966669743673464144e+00
1.632180623035153033e+01,5.473636374376969371e+00
1.634181194627036149e+01,4.770714375217250058e+00
1.636181766218919620e+01,5.077595211701926736e+00
1.638182337810803091e+01,4.238552838157231939e+00
1.640182909402686562e+01,5.220189465726988942e+00
1.642183480994570033e+01,4.455364423328587620e+00
1.644184052586453504e+01,6.362825639749667417e+00
1.646184624178336620e+01,5.083338119685103962e+00
1.648185195770220091e+01,5.041200715821428702e+00
1.650185767362103562e+01,5.703762234546008614e+00
1.652186338953986677e+01,5.495359000576441666e+00
1.654186910545870148e+01,6.498202510965257694e+00
1.656187482137753619e+01,6.633085243516649854e+00
1.658188053729637090e+01,6.341566081403544608e+00
1.660188625321520561e+01,5.428693025161457797e+00
1.662189196913404032e+01,6.661465693854292880e+00
1.664189768505287148e+01,6.340702104397343497e+00
1.666190340097170619e+01,7.312535791639318994e+00
1.668190911689054090e+01,6.590525664853938537e+00
1.670191483280937561e+01,7.036256817757464255e+00
1.672192054872820677e+01,8.064813411208580973e+00
1.674192626464704148e+01,7.751106742224843416e+00
1.676193198056587619e+01,7.387485636838863279e+00
1.678193769648471090e+01,7.431062929396845540e+00
1.680194341240354561e+01,8.660329095692729240e+00
1.682194912832238032e+01,7.895561746857420182e+00
1.684195484424121148e+01,7.730113586764596256e+00
1.686196056016004619e+01,8.432106502697513051e+00
1.688196627607888090e+01,8.846787258275325527e+00
1.690197199199771205e+01,8.153617480711417898e+00
1.692197770791654676e+01,8.981042129805334895e+00
1.694198342383538147e+01,9.605283975351314396e+00
1.696198913975421618e+01,1.045930346765078589e+01
1.698199485567305089e+01,9.372328490479297614e+00
1.700200057159188560e+01,9.826794238750348853e+00
1.702200628751071676e+01,1.040105955303541485e+01
1.704201200342955147e+01,1.046102627609507607e+01
1.706201771934838618e+01,1.077076522383907076e+01
1.708202343526722089e+01,1.058235086405895053e+01
1.710202915118605205e+01,1.237294558623261054e+01
1.712203486710488676e+01,1.264228520061159955e+01
1.714204058302372147e+01,1.280308591688623743e+01
1.716204629894255618e+01,1.345289070905439921e+01
1.718205201486139089e+01,1.278671632913962952e+01
1.720205773078022204e+01,1.398320010607623765e+01
1.722206344669905675e+01,1.438593464171580472e+01
1.724206916261789146e+01,1.394093845755601890e+01
1.726207487853672617e+01,1.426292140312167867e+01
1.728208059445555733e+01,1.536099847965220633e+01
1.730208631037439204e+01,1.460570635317486854e+01
1.732209202629322675e+01,1.586452618613548182e+01
1.734209774221206146e+01,1.682287179679886790e+01
1.736210345813089617e+01,1.685799590307451012e+01
1.738210917404973088e+01,1.764573571976157496e+01
1.740211488996856204e+01,1.806669533657663251e+01
1.742212060588739675e+01,1.755524452793482837e+01
1.744212632180623146e+01,1.945144856587565840e+01
1.746213203772506262e+01,1.975864521617389968e+01
1.748213775364389733e+01,1.931418636019888879e+01
1.750214346956273204e+01,1.979461679381270045e+01
1.752214918548156675e+01,2.136007896268676731e+01
1.754215490140040146e+01,2.172527494927246750e+01
1.756216061731923617e+01,2.220733418737307829e+01
1.758216633323806732e+01,2.341942333273386012e+01
1.760217204915690203e+01,2.362562976974542650e+01
1.762217776507573674e+01,2.331659971574079293e+01
1.764218348099457145e+01,2.338151934865068426e+01
1.766218919691340261e+01,2.547782596904507457e+01
1.768219491283223732e+01,2.585975678407294254e+01
1.770220062875107203e+01,2.594307621431519806e+01
1.772220634466990674e+01,2.676711062819615705e+01
1.774221206058874145e+01,2.603790463170823699e+01
1.776221777650757616e+01,2.715118282173961717e+01
1.778222349242640732e+01,2.585511186064734446e+01
1.780222920834524203e+01,2.632142155073293921e+01
1.782223492426407674e+01,2.541341759313098692e+01
1.784224064018290790e+01,2.596328045857362099e+01
1.786224635610174261e+01,2.553187683541172603e+01
1.788225207202057732e+01,2.447661053685922994e+01
1.790225778793941203e+01,2.395756026258515448e+01
1.792226350385824674e+01,2.189830808887914770e+01
1.794226921977708145e+01,2.020723367844399121e+01
1.796227493569591260e+01,2.009369479265624747e+01
