angle,intensity
1.000000000000000000e+01,8.666851491559590670e+01
1.002000571591883471e+01,9.350827376267120883e+01
1.004001143183766764e+01,9.475437904908858400e+01
1.006001714775650235e+01,9.552838867028357583e+01
1.008002286367533529e+01,9.742310117205443021e+01
1.010002857959417000e+01,9.687014988739426258e+01
1.012003429551300293e+01,9.875615559892742112e+01
1.014004001143183764e+01,9.963696566841571212e+01
1.016004572735067235e+01,1.000000000000000000e+02
1.018005144326950528e+01,9.966446628802408725e+01
1.020005715918833999e+01,9.900109335230422403e+01
1.022006287510717293e+01,9.857849256003569849e+01
1.024006859102600764e+01,9.833146481628109825e+01
1.026007430694484057e+01,9.785648924159089290e+01
1.028008002286367528e+01,9.808639311918480530e+01
1.030008573878250999e+01,9.620160268809084414e+01
1.032009145470134293e+01,9.535798541993757738e+01
1.034009717062017764e+01,9.351979826191775658e+01
1.036010288653901057e+01,8.954625432302212573e+01
1.038010860245784528e+01,8.700567159360019787e+01
1.040011431837667999e+01,8.431635929234478510e+01
1.042012003429551292e+01,8.187596675625212583e+01
1.044012575021434763e+01,7.794806702236992635e+01
1.046013146613318057e+01,7.328568129663828756e+01
1.048013718205201528e+01,6.949359485197770425e+01
1.050014289797084821e+01,6.545873722258298244e+01
1.052014861388968292e+01,6.152101282035884822e+01
1.054015432980851585e+01,5.743967290773402823e+01
1.056016004572735056e+01,5.354328292003930301e+01
1.058016576164618527e+01,4.927322271597170555e+01
1.060017147756501821e+01,4.490714106926872518e+01
1.062017719348385292e+01,4.190857957742136364e+01
1.064018290940268585e+01,3.889162961555370401e+01
1.066018862532152056e+01,3.704589130723515211e+01
1.068019434124035527e+01,3.576726702966694660e+01
1.070020005715918820e+01,3.319128232591550187e+01
1.072020577307802292e+01,3.061609863550403787e+01
1.074021148899685585e+01,3.075967323175983026e+01
1.076021720491569056e+01,2.845500928809159547e+01
1.078022292083452349e+01,2.704164933497964540e+01
1.080022863675335820e+01,2.613500518048192589e+01
1.082023435267219291e+01,2.595964022164995555e+01
1.084024006859102585e+01,2.479577137400317355e+01
1.086024578450986056e+01,2.597998953712847481e+01
1.088025150042869349e+01,2.432819964257084067e+01
1.090025721634752820e+01,2.459513417905471044e+01
1.092026293226636113e+01,2.425988629920901829e+01
1.094026864818519584e+01,2.598266740001336217e+01
1.096027436410403055e+01,2.634464344392063495e+01
1.098028008002286349e+01,2.611525416634376384e+01
1.100028579594169820e+01,2.571170737550059471e+01
1.102029151186053113e+01,2.627546489342743996e+01
1.104029722777936584e+01,2.713748952827589989e+01
1.106030294369819877e+01,2.753644647424104619e+01
1.108030865961703348e+01,2.774259814507203714e+01
1.110031437553586819e+01,2.717679220996251033e+01
1.112032009145470113e+01,2.900609362089810617e+01
1.114032580737353584e+01,2.893835944571295826e+01
1.116033152329236877e+01,2.867711421316408149e+01
1.118033723921120348e+01,2.911257581689706342e+01
1.120034295513003642e+01,3.070119931676632063e+01
1.122034867104887113e+01,3.029954497384751733e+01
1.124035438696770584e+01,3.169404084274118460e+01
1.126036010288653877e+01,3.212996657229595598e+01
1.128036581880537348e+01,3.344248452918907333e+01
1.130037153472420641e+01,3.361362361707320190e+01
1.132037725064304112e+01,3.491016483862670583e+01
1.134038296656187583e+01,3.503044737113130225e+01
1.136038868248070877e+01,3.475874422628319138e+01
1.138039439839954348e+01,3.539467921264620998e+01
1.140040011431837641e+01,3.743748453680176880e+01
1.142040583023721112e+01,3.847785892497439875e+01
1.144041154615604405e+01,3.812712208317508811e+01
1.146041726207487876e+01,3.949058338966209192e+01
1.148042297799371170e+01,3.936327971185580310e+01
1.150042869391254641e+01,4.052638896060350504e+01
1.152043440983138112e+01,4.161461811287085766e+01
1.154044012575021405e+01,4.312197529516501504e+01
1.156044584166904876e+01,4.328497595548708432e+01
1.158045155758788169e+01,4.457778421803342894e+01
1.160045727350671640e+01,4.487555239465604018e+01
1.162046298942555111e+01,4.559383082203446236e+01
1.164046870534438405e+01,4.570102321618814756e+01
1.166047442126321876e+01,4.805737582084119452e+01
1.168048013718205169e+01,4.708150652027928373e+01
1.170048585310088640e+01,4.890500337344938231e+01
1.172049156901971934e+01,4.877804661383100182e+01
1.174049728493855405e+01,5.111097282741594938e+01
1.176050300085738698e+01,5.017624431598259349e+01
1.178050871677622169e+01,5.118889484199759465e+01
1.180051443269505640e+01,5.166854385824343865e+01
1.182052014861388933e+01,5.342096293422251563e+01
1.184052586453272404e+01,5.381593032151149458e+01
1.186053158045155698e+01,5.366573873236733760e+01
1.188053729637039169e+01,5.403081994874401062e+01
1.190054301228922640e+01,5.510949385586560112e+01
1.192054872820805933e+01,5.504348185579396358e+01
1.194055444412689404e+01,5.561152435574031472e+01
1.196056016004572697e+01,5.578136476683849310e+01
1.198056587596456168e+01,5.539286772170365936e+01
1.200057159188339639e+01,5.404421850983383990e+01
1.202057730780222933e+01,5.328138773951837948e+01
1.204058302372106226e+01,5.359387176493621041e+01
1.206058873963989697e+01,5.259612305158415069e+01
1.208059445555873168e+01,5.286950318385648018e+01
1.210060017147756461e+01,5.065549684285038268e+01
1.212060588739639932e+01,5.075085070074420202e+01
1.214061160331523226e+01,4.835532239995176695e+01
1.216061731923406697e+01,4.799238116306923985e+01
1.218062303515290168e+01,4.594284987242325968e+01
1.220062875107173461e+01,4.499894324523760503e+01
1.222063446699056932e+01,4.360225554127104175e+01
1.224064018290940226e+01,4.244557578377450113e+01
1.226064589882823697e+01,4.249324148602537576e+01
1.228065161474707168e+01,4.034988903311030839e+01
1.230065733066590461e+01,3.786581182691064384e+01
1.232066304658473754e+01,3.586332681489496821e+01
1.234066876250357225e+01,3.455250445832250250e+01
1.236067447842240696e+01,3.207999907102594506e+01
1.238068019434123990e+01,3.054557475001032785e+01
1.240068591026007461e+01,2.854514763854827564e+01
1.242069162617890754e+01,2.577551042402859593e+01
1.244069734209774225e+01,2.271625167599878026e+01
1.246070305801657696e+01,2.206296263047148543e+01
1.248070877393540989e+01,1.952289423006775237e+01
1.250071448985424460e+01,1.712322455620006068e+01
1.252072020577307754e+01,1.495147471254897020e+01
1.254072592169191225e+01,1.422910544118171039e+01
1.256073163761074696e+01,1.147254361782406207e+01
1.258073735352957989e+01,1.100122513725555962e+01
1.260074306944841460e+01,1.021643832364263105e+01
1.262074878536724754e+01,7.471189177637318046e+00
1.264075450128608225e+01,7.327863177683627605e+00
1.266076021720491518e+01,7.140630775680763875e+00
1.268076593312374989e+01,5.838107187782381580e+00
1.270077164904258282e+01,6.568421044171156353e+00
1.272077736496141753e+01,6.395774256325561069e+00
1.274078308088025224e+01,5.118468144901217265e+00
1.276078879679908518e+01,4.435702533541627801e+00
1.278079451271791989e+01,4.024784197934630825e+00
1.280080022863675282e+01,4.702371672988144624e+00
1.282080594455558753e+01,4.044256387592850110e+00
1.284081166047442224e+01,5.148380098511183611e+00
1.286081737639325517e+01,3.343298155281815731e+00
1.288082309231208988e+01,2.989608272997556160e+00
1.290082880823092282e+01,3.525825441252949055e+00
1.292083452414975753e+01,3.276873971781463890e+00
1.294084024006859224e+01,3.418172608434390192e+00
1.296084595598742517e+01,4.170922327980381539e+00
1.298085167190625810e+01,4.127637798220682441e+00
1.300085738782509281e+01,4.296851051674752675e+00
1.302086310374392752e+01,4.275063695258796592e+00
1.304086881966276046e+01,3.227997073942663331e+00
1.306087453558159517e+01,2.765208227310156808e+00
1.308088025150042810e+01,4.298022549096464751e+00
1.310088596741926281e+01,3.776006529138509649e+00
1.312089168333809752e+01,3.579191719795677074e+00
1.314089739925693046e+01,3.015165751335507238e+00
1.316090311517576517e+01,3.278729088163677030e+00
1.318090883109459810e+01,3.435837709442605803e+00
1.320091454701343281e+01,4.135400688405784564e+00
1.322092026293226752e+01,2.332128594599266247e+00
1.324092597885110045e+01,2.318554379673616328e+00
1.326093169476993339e+01,3.752866118216995783e+00
1.328093741068876810e+01,3.627191084194357540e+00
1.330094312660760281e+01,2.983940204033128651e+00
1.332094884252643574e+01,3.218156997664664232e+00
1.334095455844527045e+01,2.707728281608431153e+00
1.336096027436410338e+01,3.474520332571649828e+00
1.338096599028293809e+01,3.207114007151851354e+00
1.340097170620177280e+01,3.022321347733253116e+00
1.342097742212060574e+01,3.142824667934839500e+00
1.344098313803944045e+01,2.993112459780047807e+00
1.346098885395827338e+01,3.075944246174545871e+00
1.348099456987710809e+01,3.356825758854737440e+00
1.350100028579594280e+01,3.000677381337322203e+00
1.352100600171477573e+01,2.104770776577054470e+00
1.354101171763361044e+01,2.268695597045560675e+00
1.356101743355244338e+01,2.119343737789074478e+00
1.358102314947127809e+01,3.814906362874730394e+00
1.360102886539011102e+01,2.725435028073420529e+00
1.362103458130894573e+01,2.891598567877528669e+00
1.364104029722777867e+01,3.169926164190802531e+00
1.366104601314661338e+01,2.568859446732092433e+00
1.368105172906544809e+01,3.117412650673944352e+00
1.370105744498428102e+01,2.744644464906115022e+00
1.372106316090311573e+01,3.637721783625875283e+00
1.374106887682194866e+01,2.263766546652372647e+00
1.376107459274078337e+01,2.059383666963390258e+00
1.378108030865961808e+01,2.714808777639974302e+00
1.380108602457845102e+01,2.356820806713654015e+00
1.382109174049728573e+01,2.964399032557943237e+00
1.384109745641611866e+01,2.300328655101278930e+00
1.386110317233495337e+01,3.399082194110051969e+00
1.388110888825378808e+01,3.317237884571798023e+00
1.390111460417262101e+01,2.447873418038770676e+00
1.392112032009145395e+01,2.834832516950034798e+00
1.394112603601028866e+01,2.663030406437542741e+00
1.396113175192912337e+01,2.559877007165507035e+00
1.398113746784795630e+01,3.769873985673326100e+00
1.400114318376679101e+01,3.689661059830581458e+00
1.402114889968562395e+01,2.487266398472548268e+00
1.404115461560445866e+01,3.215942145094935256e+00
1.406116033152329337e+01,2.243881172379846412e+00
1.408116604744212630e+01,1.983911160302831433e+00
1.410117176336095923e+01,3.342900666104479779e+00
1.412117747927979394e+01,2.410904570646986045e+00
1.414118319519862865e+01,2.216123966937185941e+00
1.416118891111746336e+01,3.220094364487676053e+00
1.418119462703629630e+01,2.073100141523195550e+00
1.420120034295512923e+01,3.679192086512487414e+00
1.422120605887396394e+01,2.158916934919987263e+00
1.424121177479279865e+01,2.303315649331926451e+00
1.426121749071163336e+01,3.917696446617962458e+00
1.428122320663046629e+01,2.893363343845722024e+00
1.430122892254929923e+01,2.256109601153645006e+00
1.432123463846813394e+01,2.690442171050915210e+00
1.434124035438696865e+01,2.257081674503977453e+00
1.436124607030580158e+01,3.114689498905859999e+00
1.438125178622463629e+01,2.604924046046500408e+00
1.440125750214346922e+01,2.109108263642549108e+00
1.442126321806230393e+01,3.488822410835635601e+00
1.444126893398113864e+01,3.836053178436332978e+00
1.446127464989997158e+01,2.242021779584549623e+00
1.448128036581880451e+01,3.829822519724112251e+00
1.450128608173763922e+01,4.034454270503752937e+00
1.452129179765647393e+01,3.969272704105148986e+00
1.454129751357530864e+01,3.778013543191797385e+00
1.456130322949414158e+01,3.679045887305075091e+00
1.458130894541297451e+01,2.612623227115668190e+00
1.460131466133180922e+01,3.838206148281717578e+00
1.462132037725064393e+01,3.290961441602880289e+00
1.464132609316947686e+01,3.501471850636631800e+00
1.466133180908831157e+01,2.897886668828455470e+00
1.468133752500714451e+01,3.331867658193946813e+00
1.470134324092597922e+01,3.053990014915466844e+00
1.472134895684481393e+01,2.964077873613880421e+00
1.474135467276364686e+01,2.401984418635224827e+00
1.476136038868247979e+01,2.861222753980853462e+00
1.478136610460131450e+01,4.176529679082448432e+00
1.480137182052014921e+01,4.430078821082231499e+00
1.482137753643898392e+01,2.963267437184728958e+00
1.484138325235781686e+01,3.559689334407027950e+00
1.486138896827664979e+01,3.408294713100087137e+00
1.488139468419548450e+01,2.992526188059461578e+00
1.490140040011431921e+01,3.595442330466807945e+00
1.492140611603315392e+01,4.251430913433095427e+00
1.494141183195198685e+01,3.451023068338642474e+00
1.496141754787081979e+01,3.598022649672047546e+00
1.498142326378965450e+01,4.523194718773679845e+00
1.500142897970848921e+01,4.865510494659781138e+00
1.502143469562732214e+01,4.437327299975303951e+00
1.504144041154615508e+01,4.242644936893964491e+00
1.506144612746498979e+01,4.549301884911042926e+00
1.508145184338382450e+01,4.372254728497651399e+00
1.510145755930265921e+01,5.391121874721686247e+00
1.512146327522149214e+01,3.853987076375083642e+00
1.514146899114032507e+01,4.824875380030424488e+00
1.516147470705915978e+01,4.247557128615865985e+00
1.518148042297799449e+01,5.726512839906897412e+00
1.520148613889682920e+01,4.210678399323767529e+00
1.522149185481566214e+01,6.033320271350617325e+00
1.524149757073449507e+01,4.424068286111350723e+00
1.526150328665332978e+01,6.375014589376226226e+00
1.528150900257216449e+01,5.419614470463622879e+00
1.530151471849099742e+01,5.055568524260271701e+00
1.532152043440983036e+01,6.581933153798893876e+00
1.534152615032866507e+01,6.527190653253612140e+00
1.536153186624749978e+01,5.436193481172248987e+00
1.538153758216633449e+01,6.788592965600084739e+00
1.540154329808516742e+01,7.052708488762437611e+00
1.542154901400400036e+01,6.005301045135247762e+00
1.544155472992283507e+01,6.738000321089030464e+00
1.546156044584166978e+01,7.690097312360350656e+00
1.548156616176050449e+01,7.414144207606694792e+00
1.550157187767933742e+01,7.295817034447313887e+00
1.552157759359817035e+01,8.190115935616546494e+00
1.554158330951700506e+01,7.863914482583379773e+00
1.556158902543583977e+01,8.162569917867990910e+00
1.558159474135467271e+01,8.651740828646692805e+00
1.560160045727350742e+01,8.749731175454227738e+00
1.562160617319234035e+01,9.152804862999685653e+00
1.564161188911117506e+01,1.014773489659994077e+01
1.566161760503000977e+01,1.035217299447489836e+01
1.568162332094884270e+01,1.065787941028434105e+01
1.570162903686767564e+01,9.999852247362412072e+00
1.572163475278651035e+01,1.088118353776147806e+01
1.574164046870534506e+01,1.123526253690496901e+01
1.576164618462417977e+01,1.092640580325622679e+01
1.578165190054301270e+01,1.123640915945798291e+01
1.580165761646184563e+01,1.313167307338580869e+01
1.582166333238068034e+01,1.258668214585548029e+01
1.584166904829951505e+01,1.240807749442307717e+01
1.586167476421834799e+01,1.332979394693256836e+01
1.588168048013718270e+01,1.322590494943957573e+01
1.590168619605601563e+01,1.397706073775787594e+01
1.592169191197485034e+01,1.539682852029233118e+01
1.594169762789368505e+01,1.601774423656445734e+01
1.596170334381251799e+01,1.555952494696001587e+01
1.598170905973135092e+01,1.540425268013192905e+01
1.600171477565018563e+01,1.628229491351425295e+01
1.602172049156902034e+01,1.815535128649427676e+01
1.604172620748785505e+01,1.796308671560908721e+01
1.606173192340668976e+01,1.737232537142297062e+01
1.608173763932552092e+01,1.870854223676585448e+01
1.610174335524435563e+01,2.022919559300859049e+01
1.612174907116319034e+01,2.072719278241631002e+01
1.614175478708202505e+01,2.149879711701315799e+01
1.616176050300085620e+01,2.096328500744460399e+01
1.618176621891969091e+01,2.184049541315085463e+01
1.620177193483852562e+01,2.182424589696536898e+01
1.622177765075736033e+01,2.273122392641038658e+01
1.624178336667619504e+01,2.496296082451024745e+01
1.626178908259502620e+01,2.568511861090256332e+01
1.628179479851386091e+01,2.598721093611986177e+01
1.630180051443269562e+01,2.597500049304741410e+01
1.632180623035153033e+01,2.717942440146895322e+01
1.634181194627036149e+01,2.835538368963245404e+01
1.636181766218919620e+01,2.875502978227334339e+01
1.638182337810803091e+01,2.944811740966988367e+01
1.640182909402686562e+01,3.004311174710296939e+01
1.642183480994570033e+01,3.090655843290171489e+01
1.644184052586453504e+01,3.147003569794646438e+01
1.646184624178336620e+01,3.183562559909161038e+01
1.648185195770220091e+01,3.250193988848070603e+01
1.650185767362103562e+01,3.505737990316727348e+01
1.652186338953986677e+01,3.515529184367207449e+01
1.654186910545870148e+01,3.477932591167980547e+01
1.656187482137753619e+01,3.672394509816784591e+01
1.658188053729637090e+01,3.553123991346584631e+01
1.660188625321520561e+01,3.640240142025084680e+01
1.662189196913404032e+01,3.726491431578897107e+01
1.664189768505287148e+01,3.797005398471358717e+01
1.666190340097170619e+01,3.715148848738945730e+01
1.668190911689054090e+01,3.632417187369543399e+01
1.670191483280937561e+01,3.670174415688874348e+01
1.672192054872820677e+01,3.586388166860589877e+01
1.674192626464704148e+01,3.633640713408300371e+01
1.676193198056587619e+01,3.588313323797307675e+01
1.678193769648471090e+01,3.514559618672673480e+01
1.680194341240354561e+01,3.304628918291179218e+01
1.682194912832238032e+01,3.248055461546883294e+01
1.684195484424121148e+01,3.110548952293583014e+01
1.686196056016004619e+01,3.005315080742530043e+01
1.688196627607888090e+01,2.998225856926563893e+01
1.690197199199771205e+01,2.953088854074371028e+01
1.692197770791654676e+01,2.829180892531162783e+01
1.694198342383538147e+01,2.778730714839418070e+01
1.696198913975421618e+01,2.749659535118593112e+01
1.698199485567305089e+01,2.665446797697003944e+01
1.700200057159188560e+01,2.578840611545760453e+01
1.702200628751071676e+01,2.593250522640063238e+01
1.704201200342955147e+01,2.641924106598108679e+01
1.706201771934838618e+01,2.569358537642115081e+01
1.708202343526722089e+01,2.583997424459046854e+01
1.710202915118605205e+01,2.580976433354748423e+01
1.712203486710488676e+01,2.661274603428977059e+01
1.714204058302372147e+01,2.594705654360955904e+01
1.716204629894255618e+01,2.550745099510521996e+01
1.718205201486139089e+01,2.441512063729309290e+01
1.720205773078022204e+01,2.401555549484864471e+01
1.722206344669905675e+01,2.382650221640598787e+01
1.724206916261789146e+01,2.343934785478525740e+01
1.726207487853672617e+01,2.248152673081246533e+01
1.728208059445555733e+01,1.960353166560857119e+01
1.730208631037439204e+01,1.846516707017621428e+01
1.732209202629322675e+01,1.713097729186287310e+01
1.734209774221206146e+01,1.731290164965295375e+01
1.736210345813089617e+01,1.451440565932583482e+01
1.738210917404973088e+01,1.349413535211454906e+01
1.740211488996856204e+01,1.252485812054154124e+01
1.742212060588739675e+01,1.254502569880251528e+01
1.744212632180623146e+01,1.123212295992845888e+01
1.746213203772506262e+01,1.023745896267559985e+01
1.748213775364389733e+01,7.878162855335207659e+00
1.750214346956273204e+01,7.561696526984328592e+00
1.752214918548156675e+01,7.868724261396891961e+00
1.754215490140040146e+01,7.376827804514804576e+00
1.756216061731923617e+01,6.172502582161187412e+00
1.758216633323806732e+01,7.007876163768979261e+00
1.760217204915690203e+01,5.802080949110912655e+00
1.762217776507573674e+01,5.214839070860130654e+00
1.764218348099457145e+01,6.178972536214255129e+00
1.766218919691340261e+01,5.555915790235559371e+00
1.768219491283223732e+01,6.015820365487324572e+00
1.770220062875107203e+01,5.019121767109404608e+00
1.772220634466990674e+01,5.528681959386457123e+00
1.774221206058874145e+01,4.826007129351460812e+00
1.776221777650757616e+01,5.180097850905936774e+00
1.778222349242640732e+01,4.096986664083461349e+00
1.780222920834524203e+01,5.500338509725747116e+00
1.782223492426407674e+01,3.977791473163876823e+00
1.784224064018290790e+01,4.236408841879155673e+00
1.786224635610174261e+01,3.576026669901417154e+00
1.788225207202057732e+01,4.392576144379614966e+00
1.790225778793941203e+01,4.069219208265508314e+00
1.792226350385824674e+01,4.735907889107060953e+00
1.794226921977708145e+01,5.145306209218913018e+00
1.796227493569591260e+01,4.416304915630429484e+00
