angle,intensity
1.000000000000000000e+01,9.150977680257312841e+01
1.002000571591883471e+01,9.364503558870461575e+01
1.004001143183766764e+01,9.414291368213275746e+01
1.006001714775650235e+01,9.590334768982344826e+01
1.008002286367533529e+01,9.666201167538358163e+01
1.010002857959417000e+01,9.800992424035183603e+01
1.012003429551300293e+01,9.760628700149675296e+01
1.014004001143183764e+01,9.912117406354538218e+01
1.016004572735067235e+01,9.941976745989185815e+01
1.018005144326950528e+01,9.960033937077875521e+01
1.020005715918833999e+01,1.000000000000000000e+02
1.022006287510717293e+01,9.983303270243891347e+01
1.024006859102600764e+01,9.837162869451489655e+01
1.026007430694484057e+01,9.852399683320990675e+01
1.028008002286367528e+01,9.732012735015322846e+01
1.030008573878250999e+01,9.629732649825649560e+01
1.032009145470134293e+01,9.329175367332618407e+01
1.034009717062017764e+01,9.186989860786269446e+01
1.036010288653901057e+01,8.921372673538088804e+01
1.038010860245784528e+01,8.518925642516521179e+01
1.040011431837667999e+01,8.202122942015336093e+01
1.042012003429551292e+01,7.764765426669190163e+01
1.044012575021434763e+01,7.241909073401589580e+01
1.046013146613318057e+01,6.739413997047276439e+01
1.048013718205201528e+01,6.230710336576468933e+01
1.050014289797084821e+01,5.744484168365022470e+01
1.052014861388968292e+01,5.093172371728725523e+01
1.054015432980851585e+01,4.605575906591623436e+01
1.056016004572735056e+01,4.165305198086034011e+01
1.058016576164618527e+01,3.772804301483198941e+01
1.060017147756501821e+01,3.314136314624123969e+01
1.062017719348385292e+01,3.050625199994136239e+01
1.064018290940268585e+01,2.679045215277590586e+01
1.066018862532152056e+01,2.415132413247918208e+01
1.068019434124035527e+01,2.192682317614538334e+01
1.070020005715918820e+01,2.054831516933997548e+01
1.072020577307802292e+01,1.915540274478496841e+01
1.074021148899685585e+01,1.866777818905516995e+01
1.076021720491569056e+01,1.715415468200220062e+01
1.078022292083452349e+01,1.678894431495668016e+01
1.080022863675335820e+01,1.591991927872266643e+01
1.082023435267219291e+01,1.656157392214456081e+01
1.084024006859102585e+01,1.619835903636926133e+01
1.086024578450986056e+01,1.523654587785001624e+01
1.088025150042869349e+01,1.492719258693659512e+01
1.090025721634752820e+01,1.502074478833685944e+01
1.092026293226636113e+01,1.538984014937443945e+01
1.094026864818519584e+01,1.529864670054781506e+01
1.096027436410403055e+01,1.574065674615260768e+01
1.098028008002286349e+01,1.608395601290503052e+01
1.100028579594169820e+01,1.561414755745574290e+01
1.102029151186053113e+01,1.565722265650599709e+01
1.104029722777936584e+01,1.621438674531017199e+01
1.106030294369819877e+01,1.601811481782324265e+01
1.108030865961703348e+01,1.586064306636823495e+01
1.110031437553586819e+01,1.757298245436881245e+01
1.112032009145470113e+01,1.697653862068021624e+01
1.114032580737353584e+01,1.642805079207820995e+01
1.116033152329236877e+01,1.776714790250293063e+01
1.118033723921120348e+01,1.730736439863303389e+01
1.120034295513003642e+01,1.830973436679129307e+01
1.122034867104887113e+01,1.886911410196297467e+01
1.124035438696770584e+01,1.948321432770667982e+01
1.126036010288653877e+01,1.845083791495751768e+01
1.128036581880537348e+01,1.948483696328406012e+01
1.130037153472420641e+01,1.970536970830445966e+01
1.132037725064304112e+01,1.948101158849839720e+01
1.134038296656187583e+01,1.966169573329163001e+01
1.136038868248070877e+01,2.069872754886683452e+01
1.138039439839954348e+01,2.172307451966243264e+01
1.140040011431837641e+01,2.177445812295797367e+01
1.142040583023721112e+01,2.239497201432005014e+01
1.144041154615604405e+01,2.203925747617769915e+01
1.146041726207487876e+01,2.260959770853979123e+01
1.148042297799371170e+01,2.280886643893604315e+01
1.150042869391254641e+01,2.390621890751481615e+01
1.152043440983138112e+01,2.367072186129511735e+01
1.154044012575021405e+01,2.434091679841818845e+01
1.156044584166904876e+01,2.430028743055142826e+01
1.158045155758788169e+01,2.503159107368277958e+01
1.160045727350671640e+01,2.582274982559971477e+01
1.162046298942555111e+01,2.678543098277103951e+01
1.164046870534438405e+01,2.706568731416980711e+01
1.166047442126321876e+01,2.741638569375314560e+01
1.168048013718205169e+01,2.855724215521146547e+01
1.170048585310088640e+01,2.835774883632282339e+01
1.172049156901971934e+01,2.960918536762670783e+01
1.174049728493855405e+01,2.975484227439847018e+01
1.176050300085738698e+01,3.002031734898212534e+01
1.178050871677622169e+01,3.100934476823745456e+01
1.180051443269505640e+01,3.231464430087363837e+01
1.182052014861388933e+01,3.199982920021025734e+01
1.184052586453272404e+01,3.211143891118719296e+01
1.186053158045155698e+01,3.312870719389263741e+01
1.188053729637039169e+01,3.321864430263823209e+01
1.190054301228922640e+01,3.394410321167534761e+01
1.192054872820805933e+01,3.494699015135751807e+01
1.194055444412689404e+01,3.521149807171700274e+01
1.196056016004572697e+01,3.506948303076542572e+01
1.198056587596456168e+01,3.548227057078884172e+01
1.200057159188339639e+01,3.533181590943632955e+01
1.202057730780222933e+01,3.692868693024092863e+01
1.204058302372106226e+01,3.518196202197645306e+01
1.206058873963989697e+01,3.570874782739784337e+01
1.208059445555873168e+01,3.660059307711269128e+01
1.210060017147756461e+01,3.571483692836667245e+01
1.212060588739639932e+01,3.480068923284778748e+01
1.214061160331523226e+01,3.426888271294500754e+01
1.216061731923406697e+01,3.441526345242900220e+01
1.218062303515290168e+01,3.233369509669795150e+01
1.220062875107173461e+01,3.154560140155563630e+01
1.222063446699056932e+01,3.101068333069184746e+01
1.224064018290940226e+01,2.865118504150738943e+01
1.226064589882823697e+01,2.701385638636286046e+01
1.228065161474707168e+01,2.592573023303253876e+01
1.230065733066590461e+01,2.375595654288824221e+01
1.232066304658473754e+01,2.208677888377423315e+01
1.234066876250357225e+01,1.914068449217792534e+01
1.236067447842240696e+01,1.778897069269809350e+01
1.238068019434123990e+01,1.576146846607363372e+01
1.240068591026007461e+01,1.459509422566469894e+01
1.242069162617890754e+01,1.264138969015699665e+01
1.244069734209774225e+01,1.029363534930257984e+01
1.246070305801657696e+01,9.891075115173038057e+00
1.248070877393540989e+01,8.274914444245203171e+00
1.250071448985424460e+01,8.154513227867131064e+00
1.252072020577307754e+01,7.351676522420895310e+00
1.254072592169191225e+01,6.078734015666000801e+00
1.256073163761074696e+01,4.885040889983255141e+00
1.258073735352957989e+01,5.832425113557560437e+00
1.260074306944841460e+01,4.540543037482780875e+00
1.262074878536724754e+01,4.680423470269781561e+00
1.264075450128608225e+01,3.983815349318485133e+00
1.266076021720491518e+01,4.518754163999065376e+00
1.268076593312374989e+01,3.480764597136366323e+00
1.270077164904258282e+01,3.733721199807839675e+00
1.272077736496141753e+01,3.870339341074598316e+00
1.274078308088025224e+01,2.875786283971856427e+00
1.276078879679908518e+01,3.759139343785585563e+00
1.278079451271791989e+01,3.327267819903602764e+00
1.280080022863675282e+01,3.042969196695026302e+00
1.282080594455558753e+01,2.707572515694616655e+00
1.284081166047442224e+01,3.345202697833903116e+00
1.286081737639325517e+01,2.772604483582228330e+00
1.288082309231208988e+01,2.729364234718993920e+00
1.290082880823092282e+01,2.479370614203394219e+00
1.292083452414975753e+01,2.743444005016068665e+00
1.294084024006859224e+01,3.546748178535191975e+00
1.296084595598742517e+01,3.174469478822374846e+00
1.298085167190625810e+01,2.664768789125008475e+00
1.300085738782509281e+01,3.295142842884320800e+00
1.302086310374392752e+01,2.681850724157374799e+00
1.304086881966276046e+01,3.164519762985460005e+00
1.306087453558159517e+01,2.338887972221325384e+00
1.308088025150042810e+01,2.880217904742551127e+00
1.310088596741926281e+01,3.405898053723542596e+00
1.312089168333809752e+01,2.359158059932773277e+00
1.314089739925693046e+01,2.402318259470218376e+00
1.316090311517576517e+01,2.742864475464896312e+00
1.318090883109459810e+01,2.867299225329592360e+00
1.320091454701343281e+01,3.220715267506685464e+00
1.322092026293226752e+01,2.353548101104519841e+00
1.324092597885110045e+01,3.009130994030960515e+00
1.326093169476993339e+01,2.324637865211745869e+00
1.328093741068876810e+01,2.719250802102183950e+00
1.330094312660760281e+01,2.398987602753161585e+00
1.332094884252643574e+01,2.058057956930882781e+00
1.334095455844527045e+01,2.422544554149907547e+00
1.336096027436410338e+01,2.411944096316931407e+00
1.338096599028293809e+01,3.595951881860188770e+00
1.340097170620177280e+01,2.633659287109018976e+00
1.342097742212060574e+01,2.351090567641527240e+00
1.344098313803944045e+01,2.335728331298180471e+00
1.346098885395827338e+01,2.929668170897619106e+00
1.348099456987710809e+01,2.282389079561410572e+00
1.350100028579594280e+01,2.736906122310728495e+00
1.352100600171477573e+01,2.768020646428715370e+00
1.354101171763361044e+01,3.411267433330672727e+00
1.356101743355244338e+01,2.383763973233081757e+00
1.358102314947127809e+01,2.522262078908903415e+00
1.360102886539011102e+01,3.374307229287828225e+00
1.362103458130894573e+01,2.753009608800101482e+00
1.364104029722777867e+01,2.112904336909611214e+00
1.366104601314661338e+01,2.137114464997893037e+00
1.368105172906544809e+01,2.388136006302230996e+00
1.370105744498428102e+01,2.703138890345284651e+00
1.372106316090311573e+01,2.831323296234239617e+00
1.374106887682194866e+01,2.719817852067262898e+00
1.376107459274078337e+01,2.113631022933118331e+00
1.378108030865961808e+01,2.303986047316202601e+00
1.380108602457845102e+01,3.087762835622250179e+00
1.382109174049728573e+01,2.686561002742157811e+00
1.384109745641611866e+01,2.520111065237562897e+00
1.386110317233495337e+01,2.125672232660984928e+00
1.388110888825378808e+01,2.977454941238379504e+00
1.390111460417262101e+01,2.808850997215893486e+00
1.392112032009145395e+01,2.994472166489486220e+00
1.394112603601028866e+01,2.872317906933767873e+00
1.396113175192912337e+01,2.222554014481535667e+00
1.398113746784795630e+01,2.589745012421363235e+00
1.400114318376679101e+01,3.322129000902928730e+00
1.402114889968562395e+01,2.760141488947853716e+00
1.404115461560445866e+01,2.038836165297189584e+00
1.406116033152329337e+01,2.880474415058089210e+00
1.408116604744212630e+01,2.137557363798867183e+00
1.410117176336095923e+01,3.437344942235446510e+00
1.412117747927979394e+01,2.996857890019218651e+00
1.414118319519862865e+01,2.615726140964345081e+00
1.416118891111746336e+01,2.277269756437847459e+00
1.418119462703629630e+01,2.592390602487195661e+00
1.420120034295512923e+01,3.161856795090224104e+00
1.422120605887396394e+01,2.542615705084378064e+00
1.424121177479279865e+01,3.092606517999371363e+00
1.426121749071163336e+01,2.003012039497742869e+00
1.428122320663046629e+01,2.891195685488513689e+00
1.430122892254929923e+01,3.026147058436650106e+00
1.432123463846813394e+01,2.796887284981538269e+00
1.434124035438696865e+01,3.136089849395625961e+00
1.436124607030580158e+01,3.334422705746027837e+00
1.438125178622463629e+01,3.174011311396764068e+00
1.440125750214346922e+01,2.816161922776998949e+00
1.442126321806230393e+01,3.199764367425889322e+00
1.444126893398113864e+01,2.273252215711393465e+00
1.446127464989997158e+01,2.945304752483607125e+00
1.448128036581880451e+01,2.494710063005315170e+00
1.450128608173763922e+01,2.266268013826993943e+00
1.452129179765647393e+01,2.882462659084440659e+00
1.454129751357530864e+01,2.571871425424422597e+00
1.456130322949414158e+01,3.564389734608423677e+00
1.458130894541297451e+01,3.504890981633634439e+00
1.460131466133180922e+01,3.189129710445025800e+00
1.462132037725064393e+01,3.181199224341642484e+00
1.464132609316947686e+01,2.280564138348086356e+00
1.466133180908831157e+01,2.776770486386173076e+00
1.468133752500714451e+01,3.138353997989768551e+00
1.470134324092597922e+01,3.485649929471111630e+00
1.472134895684481393e+01,2.699993914140568219e+00
1.474135467276364686e+01,3.244306152924097297e+00
1.476136038868247979e+01,3.114572997969817347e+00
1.478136610460131450e+01,2.920135712502224479e+00
1.480137182052014921e+01,3.072317594953842601e+00
1.482137753643898392e+01,2.889383477119438659e+00
1.484138325235781686e+01,2.895671563247103286e+00
1.486138896827664979e+01,2.802655034066090955e+00
1.488139468419548450e+01,3.486525232710831812e+00
1.490140040011431921e+01,3.147546185093256454e+00
1.492140611603315392e+01,3.271529716310172198e+00
1.494141183195198685e+01,2.954909065366948084e+00
1.496141754787081979e+01,2.992150388816800621e+00
1.498142326378965450e+01,2.585598404820337759e+00
1.500142897970848921e+01,3.327591946896790276e+00
1.502143469562732214e+01,3.703330004551689925e+00
1.504144041154615508e+01,3.614406402310712529e+00
1.506144612746498979e+01,3.511068066726514836e+00
1.508145184338382450e+01,2.924586401413375558e+00
1.510145755930265921e+01,3.479919880624162687e+00
1.512146327522149214e+01,3.380547341173296250e+00
1.514146899114032507e+01,3.295556862056606029e+00
1.516147470705915978e+01,3.786744615722375418e+00
1.518148042297799449e+01,3.659258965551861920e+00
1.520148613889682920e+01,4.283879975311000621e+00
1.522149185481566214e+01,3.461748147094457995e+00
1.524149757073449507e+01,3.826779564261858724e+00
1.526150328665332978e+01,3.634350268784563909e+00
1.528150900257216449e+01,4.558218377211437300e+00
1.530151471849099742e+01,4.182706523803231491e+00
1.532152043440983036e+01,4.136042152414304951e+00
1.534152615032866507e+01,3.943066028634200748e+00
1.536153186624749978e+01,3.890846943103885902e+00
1.538153758216633449e+01,4.793427465435501134e+00
1.540154329808516742e+01,4.301793197706651029e+00
1.542154901400400036e+01,4.788823081750965827e+00
1.544155472992283507e+01,4.577262416499568332e+00
1.546156044584166978e+01,5.515627570354753928e+00
1.548156616176050449e+01,5.264133874146381231e+00
1.550157187767933742e+01,4.526383624583655063e+00
1.552157759359817035e+01,4.536005028738182787e+00
1.554158330951700506e+01,5.593450941909544838e+00
1.556158902543583977e+01,5.647650813190974617e+00
1.558159474135467271e+01,5.138712004329627270e+00
1.560160045727350742e+01,5.724354897049019897e+00
1.562160617319234035e+01,5.571405755900559420e+00
1.564161188911117506e+01,6.522116662707480472e+00
1.566161760503000977e+01,6.327429046124460221e+00
1.568162332094884270e+01,6.316680997719334556e+00
1.570162903686767564e+01,6.422193923971130758e+00
1.572163475278651035e+01,6.876211232290516229e+00
1.574164046870534506e+01,7.148216914204850170e+00
1.576164618462417977e+01,7.142404720978969834e+00
1.578165190054301270e+01,7.104934220915117393e+00
1.580165761646184563e+01,7.366763847618056360e+00
1.582166333238068034e+01,7.375724711218527574e+00
1.584166904829951505e+01,8.159083123985482189e+00
1.586167476421834799e+01,7.982912945561412066e+00
1.588168048013718270e+01,8.002077252055235235e+00
1.590168619605601563e+01,7.795763861217002599e+00
1.592169191197485034e+01,9.270604496153016072e+00
1.594169762789368505e+01,9.242740933261881509e+00
1.596170334381251799e+01,9.040768328978737500e+00
1.598170905973135092e+01,9.052484011640633099e+00
1.600171477565018563e+01,9.420399996891624994e+00
1.602172049156902034e+01,9.265973493196128175e+00
1.604172620748785505e+01,9.939130287634764471e+00
1.606173192340668976e+01,1.041002830206943486e+01
1.608173763932552092e+01,1.093215987677888634e+01
1.610174335524435563e+01,1.112133717820525192e+01
1.612174907116319034e+01,1.113541454530781394e+01
1.614175478708202505e+01,1.159902451051803673e+01
1.616176050300085620e+01,1.128725751207291950e+01
1.618176621891969091e+01,1.168031124869414938e+01
1.620177193483852562e+01,1.294235095210088105e+01
1.622177765075736033e+01,1.287539847504153556e+01
1.624178336667619504e+01,1.394147391067458308e+01
1.626178908259502620e+01,1.399413565787235925e+01
1.628179479851386091e+01,1.422467329221523435e+01
1.630180051443269562e+01,1.488185980694465016e+01
1.632180623035153033e+01,1.501005447691372297e+01
1.634181194627036149e+01,1.530292416414397039e+01
1.636181766218919620e+01,1.560956596743965719e+01
1.638182337810803091e+01,1.581954230384515192e+01
1.640182909402686562e+01,1.641705370939797959e+01
1.642183480994570033e+01,1.648064758885679382e+01
1.644184052586453504e+01,1.812283728118730863e+01
1.646184624178336620e+01,1.799920942672022761e+01
1.648185195770220091e+01,1.756688416500304584e+01
1.650185767362103562e+01,1.876103230885763651e+01
1.652186338953986677e+01,1.981621363323771590e+01
1.654186910545870148e+01,2.022647143857552265e+01
1.656187482137753619e+01,2.032140669030359703e+01
1.658188053729637090e+01,2.038302909854194667e+01
1.660188625321520561e+01,2.113778659646488478e+01
1.662189196913404032e+01,2.115118409181269499e+01
1.664189768505287148e+01,2.284713749949394312e+01
1.666190340097170619e+01,2.359927085722947027e+01
1.668190911689054090e+01,2.337143205930898660e+01
1.670191483280937561e+01,2.392837139254218926e+01
1.672192054872820677e+01,2.507362699315936538e+01
1.674192626464704148e+01,2.486700355042553312e+01
1.676193198056587619e+01,2.495368755346994050e+01
1.678193769648471090e+01,2.477839509975559906e+01
1.680194341240354561e+01,2.468955649788803441e+01
1.682194912832238032e+01,2.523423253288524748e+01
1.684195484424121148e+01,2.538572812398905398e+01
1.686196056016004619e+01,2.388995681206611366e+01
1.688196627607888090e+01,2.374298584795483436e+01
1.690197199199771205e+01,2.325255303292292197e+01
1.692197770791654676e+01,2.236109909266047069e+01
1.694198342383538147e+01,2.229366926334974863e+01
1.696198913975421618e+01,2.083774786813938107e+01
1.698199485567305089e+01,1.961690978449946599e+01
1.700200057159188560e+01,1.896644088867850542e+01
1.702200628751071676e+01,1.721133580851327949e+01
1.704201200342955147e+01,1.572006063643996399e+01
1.706201771934838618e+01,1.428757358551320600e+01
1.708202343526722089e+01,1.303139622202381354e+01
1.710202915118605205e+01,1.170371049164196542e+01
1.712203486710488676e+01,1.108737939229096625e+01
1.714204058302372147e+01,9.254685891293632949e+00
1.716204629894255618e+01,9.308575662379146465e+00
1.718205201486139089e+01,7.304783506548972127e+00
1.720205773078022204e+01,7.053043763122142096e+00
1.722206344669905675e+01,7.372815859799540128e+00
1.724206916261789146e+01,6.298010559115312823e+00
1.726207487853672617e+01,6.179085494928840738e+00
1.728208059445555733e+01,5.573107400078203710e+00
1.730208631037439204e+01,5.371563959205621686e+00
1.732209202629322675e+01,5.135499227554037205e+00
1.734209774221206146e+01,4.900676890570186295e+00
1.736210345813089617e+01,4.535460827614160806e+00
1.738210917404973088e+01,4.908445097844757576e+00
1.740211488996856204e+01,5.051690999126895676e+00
1.742212060588739675e+01,4.123508414754393669e+00
1.744212632180623146e+01,4.435741357744657165e+00
1.746213203772506262e+01,4.629383091034592113e+00
1.748213775364389733e+01,4.945758223470997805e+00
1.750214346956273204e+01,4.209009994296830648e+00
1.752214918548156675e+01,4.063987241524449345e+00
1.754215490140040146e+01,4.239734102325979137e+00
1.756216061731923617e+01,4.818830361346208235e+00
1.758216633323806732e+01,4.042898979401646997e+00
1.760217204915690203e+01,3.936920766788877479e+00
1.762217776507573674e+01,3.651690999623250278e+00
1.764218348099457145e+01,4.326795502734093191e+00
1.766218919691340261e+01,4.453833898560130677e+00
1.768219491283223732e+01,3.714478518543350205e+00
1.770220062875107203e+01,4.192903662045504021e+00
1.772220634466990674e+01,3.651805615360425250e+00
1.774221206058874145e+01,4.502471022492925634e+00
1.776221777650757616e+01,4.430352096684185170e+00
1.778222349242640732e+01,4.607247377536481281e+00
1.780222920834524203e+01,5.035211718849051721e+00
1.782223492426407674e+01,4.791484291932530226e+00
1.784224064018290790e+01,4.985540166259585071e+00
1.786224635610174261e+01,4.021328381109084305e+00
1.788225207202057732e+01,4.683969768001068346e+00
1.790225778793941203e+01,4.203864195250359259e+00
1.792226350385824674e+01,5.322763170647940356e+00
1.794226921977708145e+01,4.016250110167767673e+00
1.796227493569591260e+01,5.031136988327563841e+00
