angle,intensity
1.000000000000000000e+01,9.139404016363795336e+01
1.002000571591883471e+01,9.899059735193701215e+01
1.004001143183766764e+01,9.994126360653727659e+01
1.006001714775650235e+01,9.954450895592808024e+01
1.008002286367533529e+01,9.925809223138470827e+01
1.010002857959417000e+01,9.860925230532652108e+01
1.012003429551300293e+01,9.704548791495905391e+01
1.014004001143183764e+01,9.537112993856446508e+01
1.016004572735067235e+01,9.417767824290747569e+01
1.018005144326950528e+01,9.263818134869177356e+01
1.020005715918833999e+01,9.198620195567357882e+01
1.022006287510717293e+01,8.932797820767835617e+01
1.024006859102600764e+01,8.743619983840247301e+01
1.026007430694484057e+01,8.451874929493793331e+01
1.028008002286367528e+01,8.222900483974019892e+01
1.030008573878250999e+01,8.069035089762650159e+01
1.032009145470134293e+01,7.698216885079290250e+01
1.034009717062017764e+01,7.459832413699369624e+01
1.036010288653901057e+01,7.180823719704524422e+01
1.038010860245784528e+01,6.879139743898474535e+01
1.040011431837667999e+01,6.687697245519571254e+01
1.042012003429551292e+01,6.390841768582330928e+01
1.044012575021434763e+01,6.139479004930994677e+01
1.046013146613318057e+01,5.938055470468852803e+01
1.048013718205201528e+01,5.639766777262835262e+01
1.050014289797084821e+01,5.390791970627492447e+01
1.052014861388968292e+01,5.215285733475582930e+01
1.054015432980851585e+01,4.948743569141257126e+01
1.056016004572735056e+01,4.837643470788762556e+01
1.058016576164618527e+01,4.650846741769711912e+01
1.060017147756501821e+01,4.452246384795429890e+01
1.062017719348385292e+01,4.380921448471169555e+01
1.064018290940268585e+01,4.210202113037551896e+01
1.066018862532152056e+01,4.107030307781690937e+01
1.068019434124035527e+01,4.070983803856324812e+01
1.070020005715918820e+01,3.940545423344665465e+01
1.072020577307802292e+01,3.907335348012071563e+01
1.074021148899685585e+01,3.927073638582120907e+01
1.076021720491569056e+01,3.834511838019314922e+01
1.078022292083452349e+01,3.875398770636273582e+01
1.080022863675335820e+01,3.835127569577696249e+01
1.082023435267219291e+01,3.782900307280159780e+01
1.084024006859102585e+01,3.806675211161176264e+01
1.086024578450986056e+01,3.707527480732494496e+01
1.088025150042869349e+01,3.781935313778355123e+01
1.090025721634752820e+01,3.808271369785408922e+01
1.092026293226636113e+01,3.761743133444514342e+01
1.094026864818519584e+01,3.884828259519254345e+01
1.096027436410403055e+01,3.922586477393342363e+01
1.098028008002286349e+01,3.831158747539014087e+01
1.100028579594169820e+01,3.977795667480017983e+01
1.102029151186053113e+01,3.988636397228704311e+01
1.104029722777936584e+01,3.984342103244333089e+01
1.106030294369819877e+01,4.029910983365695643e+01
1.108030865961703348e+01,4.010046195687370130e+01
1.110031437553586819e+01,4.170527671145509885e+01
1.112032009145470113e+01,4.076611988997451874e+01
1.114032580737353584e+01,4.129213448267194053e+01
1.116033152329236877e+01,4.176257787202415273e+01
1.118033723921120348e+01,4.308620228872335645e+01
1.120034295513003642e+01,4.319051399225128307e+01
1.122034867104887113e+01,4.287097576195631632e+01
1.124035438696770584e+01,4.404363849104193207e+01
1.126036010288653877e+01,4.422139467254160650e+01
1.128036581880537348e+01,4.479505748859401137e+01
1.130037153472420641e+01,4.509105013444833787e+01
1.132037725064304112e+01,4.534785339018745276e+01
1.134038296656187583e+01,4.548225073100966398e+01
1.136038868248070877e+01,4.558050381929436412e+01
1.138039439839954348e+01,4.650110956985547972e+01
1.140040011431837641e+01,4.700802338691270421e+01
1.142040583023721112e+01,4.678778651922168308e+01
1.144041154615604405e+01,4.835243106291152060e+01
1.146041726207487876e+01,4.778243817498395174e+01
1.148042297799371170e+01,4.842939731973208239e+01
1.150042869391254641e+01,4.826420752148018778e+01
1.152043440983138112e+01,4.816320785072174715e+01
1.154044012575021405e+01,4.921307484403418187e+01
1.156044584166904876e+01,4.905371313616154794e+01
1.158045155758788169e+01,4.934317483369935076e+01
1.160045727350671640e+01,4.920950024368962517e+01
1.162046298942555111e+01,4.932850998391020880e+01
1.164046870534438405e+01,4.885492135971504979e+01
1.166047442126321876e+01,5.032766503348656784e+01
1.168048013718205169e+01,4.894123663107925637e+01
1.170048585310088640e+01,5.007535366224139750e+01
1.172049156901971934e+01,5.038363224406518270e+01
1.174049728493855405e+01,4.892593563420116709e+01
1.176050300085738698e+01,4.924521778334966626e+01
1.178050871677622169e+01,4.900705337282345653e+01
1.180051443269505640e+01,4.928116565541733962e+01
1.182052014861388933e+01,4.974859970248824936e+01
1.184052586453272404e+01,4.846001963087529418e+01
1.186053158045155698e+01,4.900766318940586785e+01
1.188053729637039169e+01,4.838462990546227616e+01
1.190054301228922640e+01,4.755017231729220839e+01
1.192054872820805933e+01,4.652866326592378243e+01
1.194055444412689404e+01,4.625214023629079918e+01
1.196056016004572697e+01,4.484958909355083279e+01
1.198056587596456168e+01,4.419132191591136660e+01
1.200057159188339639e+01,4.337018679341850458e+01
1.202057730780222933e+01,4.237979466451975696e+01
1.204058302372106226e+01,4.159924334047622096e+01
1.206058873963989697e+01,4.034189819807865263e+01
1.208059445555873168e+01,3.813586175908940135e+01
1.210060017147756461e+01,3.668516973595914976e+01
1.212060588739639932e+01,3.625235598853286945e+01
1.214061160331523226e+01,3.463085328298314636e+01
1.216061731923406697e+01,3.376991883575613684e+01
1.218062303515290168e+01,3.273440429002221919e+01
1.220062875107173461e+01,3.078799553856003968e+01
1.222063446699056932e+01,2.965670302164843264e+01
1.224064018290940226e+01,2.779515417620959283e+01
1.226064589882823697e+01,2.730501685160369263e+01
1.228065161474707168e+01,2.596156570292527377e+01
1.230065733066590461e+01,2.430306910386286745e+01
1.232066304658473754e+01,2.364423931536427403e+01
1.234066876250357225e+01,2.191205513393490634e+01
1.236067447842240696e+01,2.158314413644164276e+01
1.238068019434123990e+01,2.091555683640716268e+01
1.240068591026007461e+01,1.959293718131442574e+01
1.242069162617890754e+01,1.873884819056031859e+01
1.244069734209774225e+01,1.845983991964364179e+01
1.246070305801657696e+01,1.862387521945727897e+01
1.248070877393540989e+01,1.760842158493626997e+01
1.250071448985424460e+01,1.692192935617816119e+01
1.252072020577307754e+01,1.668794455007342492e+01
1.254072592169191225e+01,1.665641371334939436e+01
1.256073163761074696e+01,1.634291426976970030e+01
1.258073735352957989e+01,1.576177862978696353e+01
1.260074306944841460e+01,1.464193087369757507e+01
1.262074878536724754e+01,1.527346901797436907e+01
1.264075450128608225e+01,1.442043369484051851e+01
1.266076021720491518e+01,1.416496341272528348e+01
1.268076593312374989e+01,1.431917831810249453e+01
1.270077164904258282e+01,1.386341811509876365e+01
1.272077736496141753e+01,1.307280958387848813e+01
1.274078308088025224e+01,1.302424087695432320e+01
1.276078879679908518e+01,1.361135847521723719e+01
1.278079451271791989e+01,1.262196082037800693e+01
1.280080022863675282e+01,1.247026187070305880e+01
1.282080594455558753e+01,1.243498447006989771e+01
1.284081166047442224e+01,1.171226013499963869e+01
1.286081737639325517e+01,1.153674201975626090e+01
1.288082309231208988e+01,1.115964166167287175e+01
1.290082880823092282e+01,1.062795815741658068e+01
1.292083452414975753e+01,1.022892087917605508e+01
1.294084024006859224e+01,9.335059038900983097e+00
1.296084595598742517e+01,9.740012326505329554e+00
1.298085167190625810e+01,9.325164063095698452e+00
1.300085738782509281e+01,9.230906209132275109e+00
1.302086310374392752e+01,8.243120694652771974e+00
1.304086881966276046e+01,8.404656549874550464e+00
1.306087453558159517e+01,7.967944538429808432e+00
1.308088025150042810e+01,7.159182167730120838e+00
1.310088596741926281e+01,7.195235584180316835e+00
1.312089168333809752e+01,6.838007643223205534e+00
1.314089739925693046e+01,6.554631181763553194e+00
1.316090311517576517e+01,7.209763912541824027e+00
1.318090883109459810e+01,6.900963638901759012e+00
1.320091454701343281e+01,5.913187464724793507e+00
1.322092026293226752e+01,5.655885207377298940e+00
1.324092597885110045e+01,5.561701420822920738e+00
1.326093169476993339e+01,5.684295732050594907e+00
1.328093741068876810e+01,5.423669389244811789e+00
1.330094312660760281e+01,5.884268072539995842e+00
1.332094884252643574e+01,6.103632674448396855e+00
1.334095455844527045e+01,6.070748916035866749e+00
1.336096027436410338e+01,5.352863360313515173e+00
1.338096599028293809e+01,4.864699320574247920e+00
1.340097170620177280e+01,4.399695483477621849e+00
1.342097742212060574e+01,4.929134979561403895e+00
1.344098313803944045e+01,5.121658954077457082e+00
1.346098885395827338e+01,5.192194412912594537e+00
1.348099456987710809e+01,4.716530793313879144e+00
1.350100028579594280e+01,4.533575830956212194e+00
1.352100600171477573e+01,4.125636492896717300e+00
1.354101171763361044e+01,5.114819077197191532e+00
1.356101743355244338e+01,5.146256959249593699e+00
1.358102314947127809e+01,4.370285621202688375e+00
1.360102886539011102e+01,4.792526481473720068e+00
1.362103458130894573e+01,4.069399231578445963e+00
1.364104029722777867e+01,4.667210054072187475e+00
1.366104601314661338e+01,4.316231723236280793e+00
1.368105172906544809e+01,3.879460538296372718e+00
1.370105744498428102e+01,4.178447746736065227e+00
1.372106316090311573e+01,3.930109713642693681e+00
1.374106887682194866e+01,4.488924579458999808e+00
1.376107459274078337e+01,4.663329690280010098e+00
1.378108030865961808e+01,4.088156299207186706e+00
1.380108602457845102e+01,4.255591776103209156e+00
1.382109174049728573e+01,4.267749595391512329e+00
1.384109745641611866e+01,4.148867509339829951e+00
1.386110317233495337e+01,4.392732771985181195e+00
1.388110888825378808e+01,4.490427174460399407e+00
1.390111460417262101e+01,4.173312587201350787e+00
1.392112032009145395e+01,4.731780823907366873e+00
1.394112603601028866e+01,3.821638692648463120e+00
1.396113175192912337e+01,4.041732844895046028e+00
1.398113746784795630e+01,4.384835381434262658e+00
1.400114318376679101e+01,4.961442475668764729e+00
1.402114889968562395e+01,3.803131913334675041e+00
1.404115461560445866e+01,4.033715493217025383e+00
1.406116033152329337e+01,3.791561685474797549e+00
1.408116604744212630e+01,3.709933310216933844e+00
1.410117176336095923e+01,4.350449377356053304e+00
1.412117747927979394e+01,3.306493872311579096e+00
1.414118319519862865e+01,3.768327064147424466e+00
1.416118891111746336e+01,4.760567586773578164e+00
1.418119462703629630e+01,4.018472018015440739e+00
1.420120034295512923e+01,4.411143272906635993e+00
1.422120605887396394e+01,4.097959733953163486e+00
1.424121177479279865e+01,3.700341241103377143e+00
1.426121749071163336e+01,4.045426405682300164e+00
1.428122320663046629e+01,4.806581557909831659e+00
1.430122892254929923e+01,4.115137573586202357e+00
1.432123463846813394e+01,3.953204298596746380e+00
1.434124035438696865e+01,4.087738732298290323e+00
1.436124607030580158e+01,4.139329010214811255e+00
1.438125178622463629e+01,3.517593353311766702e+00
1.440125750214346922e+01,3.268456490893752786e+00
1.442126321806230393e+01,4.163922703332344710e+00
1.444126893398113864e+01,3.628324907175682235e+00
1.446127464989997158e+01,3.788553296305531504e+00
1.448128036581880451e+01,5.119478576766184119e+00
1.450128608173763922e+01,4.620705905331604413e+00
1.452129179765647393e+01,4.170265888656842002e+00
1.454129751357530864e+01,4.905212825844912139e+00
1.456130322949414158e+01,3.901097341120435047e+00
1.458130894541297451e+01,4.124384543443555984e+00
1.460131466133180922e+01,4.558823970182865004e+00
1.462132037725064393e+01,4.156570121280448227e+00
1.464132609316947686e+01,4.817987296471476277e+00
1.466133180908831157e+01,4.180708844016882253e+00
1.468133752500714451e+01,4.490949306728351687e+00
1.470134324092597922e+01,5.071354687265443140e+00
1.472134895684481393e+01,4.538428166817475962e+00
1.474135467276364686e+01,4.290403717977937958e+00
1.476136038868247979e+01,4.538047989341153610e+00
1.478136610460131450e+01,4.656161219706679510e+00
1.480137182052014921e+01,5.532882747532354095e+00
1.482137753643898392e+01,5.051527221955969260e+00
1.484138325235781686e+01,4.955792394036451221e+00
1.486138896827664979e+01,4.961980228404437199e+00
1.488139468419548450e+01,4.962446407484810251e+00
1.490140040011431921e+01,5.583509193768124490e+00
1.492140611603315392e+01,5.404536694246068862e+00
1.494141183195198685e+01,4.893083296915296643e+00
1.496141754787081979e+01,4.597282675560109055e+00
1.498142326378965450e+01,6.169490304505401035e+00
1.500142897970848921e+01,5.668981976310359272e+00
1.502143469562732214e+01,5.157123018409748738e+00
1.504144041154615508e+01,6.279548629337165622e+00
1.506144612746498979e+01,6.152635881263623929e+00
1.508145184338382450e+01,5.745902974080601133e+00
1.510145755930265921e+01,6.136937705171783719e+00
1.512146327522149214e+01,6.372259223356928182e+00
1.514146899114032507e+01,6.044770598345701629e+00
1.516147470705915978e+01,7.227217220894196714e+00
1.518148042297799449e+01,5.927820215809193272e+00
1.520148613889682920e+01,6.761628938495634067e+00
1.522149185481566214e+01,6.806027226296668786e+00
1.524149757073449507e+01,6.970777509565742491e+00
1.526150328665332978e+01,7.123142764042825092e+00
1.528150900257216449e+01,6.954549218393625054e+00
1.530151471849099742e+01,7.584057545649096177e+00
1.532152043440983036e+01,7.678132749014591418e+00
1.534152615032866507e+01,7.709529351309409861e+00
1.536153186624749978e+01,7.916868643605198486e+00
1.538153758216633449e+01,7.765623394422346060e+00
1.540154329808516742e+01,7.657239327067232537e+00
1.542154901400400036e+01,8.161938880514082229e+00
1.544155472992283507e+01,8.949210842750243700e+00
1.546156044584166978e+01,8.716839226321113188e+00
1.548156616176050449e+01,9.177320102282028103e+00
1.550157187767933742e+01,9.648187056558327868e+00
1.552157759359817035e+01,1.007345979830417626e+01
1.554158330951700506e+01,9.690564819948722430e+00
1.556158902543583977e+01,1.080618439454998025e+01
1.558159474135467271e+01,9.792090789885429913e+00
1.560160045727350742e+01,1.007448495496857532e+01
1.562160617319234035e+01,1.046226865738264422e+01
1.564161188911117506e+01,1.084714457424035317e+01
1.566161760503000977e+01,1.167850130572992562e+01
1.568162332094884270e+01,1.137605087389358971e+01
1.570162903686767564e+01,1.152434574807909229e+01
1.572163475278651035e+01,1.282659432123165644e+01
1.574164046870534506e+01,1.266208773427436540e+01
1.576164618462417977e+01,1.352978106121994806e+01
1.578165190054301270e+01,1.291886384942904442e+01
1.580165761646184563e+01,1.376252157050584657e+01
1.582166333238068034e+01,1.332815227406118552e+01
1.584166904829951505e+01,1.359102166536735368e+01
1.586167476421834799e+01,1.457238098731690812e+01
1.588168048013718270e+01,1.533275439848663346e+01
1.590168619605601563e+01,1.482182285370332764e+01
1.592169191197485034e+01,1.618267810640758597e+01
1.594169762789368505e+01,1.563154259022750736e+01
1.596170334381251799e+01,1.610192999024812366e+01
1.598170905973135092e+01,1.731304661207210316e+01
1.600171477565018563e+01,1.808504653530943074e+01
1.602172049156902034e+01,1.716394349921318252e+01
1.604172620748785505e+01,1.800302631576649759e+01
1.606173192340668976e+01,1.828331664450469418e+01
1.608173763932552092e+01,1.956448548652276287e+01
1.610174335524435563e+01,1.941535883020274156e+01
1.612174907116319034e+01,1.982766251560244086e+01
1.614175478708202505e+01,2.111844540132214831e+01
1.616176050300085620e+01,2.055937088745187680e+01
1.618176621891969091e+01,2.188519112930161015e+01
1.620177193483852562e+01,2.140249498306989295e+01
1.622177765075736033e+01,2.256666626157127808e+01
1.624178336667619504e+01,2.300918413790311590e+01
1.626178908259502620e+01,2.315746435680160431e+01
1.628179479851386091e+01,2.341507150455177566e+01
1.630180051443269562e+01,2.428490256213608944e+01
1.632180623035153033e+01,2.415525391584665016e+01
1.634181194627036149e+01,2.598452873791021034e+01
1.636181766218919620e+01,2.560664364706626017e+01
1.638182337810803091e+01,2.579210461595689452e+01
1.640182909402686562e+01,2.599732958507029323e+01
1.642183480994570033e+01,2.682759081212179098e+01
1.644184052586453504e+01,2.677434527395412189e+01
1.646184624178336620e+01,2.743356072840690274e+01
1.648185195770220091e+01,2.803345264566150519e+01
1.650185767362103562e+01,2.886549344055178068e+01
1.652186338953986677e+01,2.784290015270243757e+01
1.654186910545870148e+01,2.830728640442780986e+01
1.656187482137753619e+01,2.800829059290040846e+01
1.658188053729637090e+01,2.799315830279341100e+01
1.660188625321520561e+01,2.778886574387882291e+01
1.662189196913404032e+01,2.820569938311471958e+01
1.664189768505287148e+01,2.833624675249928870e+01
1.666190340097170619e+01,2.724590433397302291e+01
1.668190911689054090e+01,2.757062643146369396e+01
1.670191483280937561e+01,2.603688307408654268e+01
1.672192054872820677e+01,2.578717889250979312e+01
1.674192626464704148e+01,2.526706146014760179e+01
1.676193198056587619e+01,2.508734218451520093e+01
1.678193769648471090e+01,2.338081260176554821e+01
1.680194341240354561e+01,2.349565897936965797e+01
1.682194912832238032e+01,2.276948864416171858e+01
1.684195484424121148e+01,2.223721844012962379e+01
1.686196056016004619e+01,2.200482830192623496e+01
1.688196627607888090e+01,1.998694829294631958e+01
1.690197199199771205e+01,1.999107012866399202e+01
1.692197770791654676e+01,1.970582402207076456e+01
1.694198342383538147e+01,1.779531470388868186e+01
1.696198913975421618e+01,1.891394008517323400e+01
1.698199485567305089e+01,1.816173149952717125e+01
1.700200057159188560e+01,1.624666224710564677e+01
1.702200628751071676e+01,1.636470671527661125e+01
1.704201200342955147e+01,1.555892246286729907e+01
1.706201771934838618e+01,1.546813837715947670e+01
1.708202343526722089e+01,1.494337293691606661e+01
1.710202915118605205e+01,1.454601753685691357e+01
1.712203486710488676e+01,1.445378577953883337e+01
1.714204058302372147e+01,1.452453109686241106e+01
1.716204629894255618e+01,1.399326489520946737e+01
1.718205201486139089e+01,1.357757424641837218e+01
1.720205773078022204e+01,1.407733144967336614e+01
1.722206344669905675e+01,1.325069016153827661e+01
1.724206916261789146e+01,1.344211758530066447e+01
1.726207487853672617e+01,1.347422997582632220e+01
1.728208059445555733e+01,1.359531131237699597e+01
1.730208631037439204e+01,1.272518667026899664e+01
1.732209202629322675e+01,1.371295674754338556e+01
1.734209774221206146e+01,1.311954598502461877e+01
1.736210345813089617e+01,1.331048318022059718e+01
1.738210917404973088e+01,1.422183866439723943e+01
1.740211488996856204e+01,1.312815287846532897e+01
1.742212060588739675e+01,1.393024482912966278e+01
1.744212632180623146e+01,1.390862420126039822e+01
1.746213203772506262e+01,1.305295356159531117e+01
1.748213775364389733e+01,1.298597229203801007e+01
1.750214346956273204e+01,1.305507400789969452e+01
1.752214918548156675e+01,1.378031121334041487e+01
1.754215490140040146e+01,1.359381073635248427e+01
1.756216061731923617e+01,1.302793565060025927e+01
1.758216633323806732e+01,1.243695151928790743e+01
1.760217204915690203e+01,1.277685945910542031e+01
1.762217776507573674e+01,1.239111239658146246e+01
1.764218348099457145e+01,1.234532188856992896e+01
1.766218919691340261e+01,1.167365287591731970e+01
1.768219491283223732e+01,1.192691985665587318e+01
1.770220062875107203e+01,1.078394940896011533e+01
1.772220634466990674e+01,1.156380694535096154e+01
1.774221206058874145e+01,1.142158865312015159e+01
1.776221777650757616e+01,1.031409283915524533e+01
1.778222349242640732e+01,1.001521629172397354e+01
1.780222920834524203e+01,9.945258177640752706e+00
1.782223492426407674e+01,9.380206347608327277e+00
1.784224064018290790e+01,9.467314049942917364e+00
1.786224635610174261e+01,8.914481973847443896e+00
1.788225207202057732e+01,9.159134286820627580e+00
1.790225778793941203e+01,7.739172567264911429e+00
1.792226350385824674e+01,7.927659894979772304e+00
1.794226921977708145e+01,7.535676760708410526e+00
1.796227493569591260e+01,7.408888585163579066e+00
