angle,intensity
1.000000000000000000e+01,8.078698579506246347e+01
1.002000571591883471e+01,8.606387442364700746e+01
1.004001143183766764e+01,8.711983574568503741e+01
1.006001714775650235e+01,8.705787550121540619e+01
1.008002286367533529e+01,8.791130766686313791e+01
1.010002857959417000e+01,8.770919861245204174e+01
1.012003429551300293e+01,8.840270266928197884e+01
1.014004001143183764e+01,8.905633217044930916e+01
1.016004572735067235e+01,8.868740479477256144e+01
1.018005144326950528e+01,8.869583251045574457e+01
1.020005715918833999e+01,8.828685450589951245e+01
1.022006287510717293e+01,8.751135779703260198e+01
1.024006859102600764e+01,8.612792150762012966e+01
1.026007430694484057e+01,8.470512183429180197e+01
1.028008002286367528e+01,8.276110142264353442e+01
1.030008573878250999e+01,8.181089530409610688e+01
1.032009145470134293e+01,7.929373376547820840e+01
1.034009717062017764e+01,7.634609564167544704e+01
1.036010288653901057e+01,7.376843179307132914e+01
1.038010860245784528e+01,7.033944068564547081e+01
1.040011431837667999e+01,6.754347214355837536e+01
1.042012003429551292e+01,6.313980995500057247e+01
1.044012575021434763e+01,5.974696844784867267e+01
1.046013146613318057e+01,5.708193974190093911e+01
1.048013718205201528e+01,5.355108226728701482e+01
1.050014289797084821e+01,4.945599948247388511e+01
1.052014861388968292e+01,4.563083551429818385e+01
1.054015432980851585e+01,4.286235197137438035e+01
1.056016004572735056e+01,4.060145497820654725e+01
1.058016576164618527e+01,3.725342140743526187e+01
1.060017147756501821e+01,3.473424182297345908e+01
1.062017719348385292e+01,3.245388182153033796e+01
1.064018290940268585e+01,3.068848896939216075e+01
1.066018862532152056e+01,2.853469167303750709e+01
1.068019434124035527e+01,2.704059454655624251e+01
1.070020005715918820e+01,2.607780989007694572e+01
1.072020577307802292e+01,2.419269756789243075e+01
1.074021148899685585e+01,2.439696849639782172e+01
1.076021720491569056e+01,2.282687107992945741e+01
1.078022292083452349e+01,2.191595686323407222e+01
1.080022863675335820e+01,2.220939985581062359e+01
1.082023435267219291e+01,2.079231436262505284e+01
1.084024006859102585e+01,2.055778106785886905e+01
1.086024578450986056e+01,2.116356228367528303e+01
1.088025150042869349e+01,2.042715465985206436e+01
1.090025721634752820e+01,2.102530965020986287e+01
1.092026293226636113e+01,1.978418538872701760e+01
1.094026864818519584e+01,2.026331677770996009e+01
1.096027436410403055e+01,1.958587770189539157e+01
1.098028008002286349e+01,1.979705284033940060e+01
1.100028579594169820e+01,2.084987650803446613e+01
1.102029151186053113e+01,1.989572650012284782e+01
1.104029722777936584e+01,2.031014677098856680e+01
1.106030294369819877e+01,2.023675511681078021e+01
1.108030865961703348e+01,2.067077503903213298e+01
1.110031437553586819e+01,2.066152945650108919e+01
1.112032009145470113e+01,2.088361851790138601e+01
1.114032580737353584e+01,2.094440894100792860e+01
1.116033152329236877e+01,2.129208257499412227e+01
1.118033723921120348e+01,2.181538440832170878e+01
1.120034295513003642e+01,2.222198554551560079e+01
1.122034867104887113e+01,2.166278526171479868e+01
1.124035438696770584e+01,2.212299717015739375e+01
1.126036010288653877e+01,2.228235908417017797e+01
1.128036581880537348e+01,2.308851745097519981e+01
1.130037153472420641e+01,2.270756817037031894e+01
1.132037725064304112e+01,2.365339414572874333e+01
1.134038296656187583e+01,2.361381816023873981e+01
1.136038868248070877e+01,2.365079899780481298e+01
1.138039439839954348e+01,2.413240768796531910e+01
1.140040011431837641e+01,2.413668553654997950e+01
1.142040583023721112e+01,2.441408593285962780e+01
1.144041154615604405e+01,2.495819715270901540e+01
1.146041726207487876e+01,2.535219682958464915e+01
1.148042297799371170e+01,2.536027501659329886e+01
1.150042869391254641e+01,2.658027441947760039e+01
1.152043440983138112e+01,2.682932334771841099e+01
1.154044012575021405e+01,2.637560187553399871e+01
1.156044584166904876e+01,2.646248470580034962e+01
1.158045155758788169e+01,2.754451845994165993e+01
1.160045727350671640e+01,2.734134972051576895e+01
1.162046298942555111e+01,2.772520661532412234e+01
1.164046870534438405e+01,2.795081203920706514e+01
1.166047442126321876e+01,2.868114547731054031e+01
1.168048013718205169e+01,2.776935062429850731e+01
1.170048585310088640e+01,2.872068432874326049e+01
1.172049156901971934e+01,2.901113678501434734e+01
1.174049728493855405e+01,2.832695391959997266e+01
1.176050300085738698e+01,2.890045795514635074e+01
1.178050871677622169e+01,2.906501144705841000e+01
1.180051443269505640e+01,2.885498022126627760e+01
1.182052014861388933e+01,2.880187695191072450e+01
1.184052586453272404e+01,2.826826847150140054e+01
1.186053158045155698e+01,2.880517760183598241e+01
1.188053729637039169e+01,2.795891749910610358e+01
1.190054301228922640e+01,2.774639556451296230e+01
1.192054872820805933e+01,2.702252744707733711e+01
1.194055444412689404e+01,2.518079386206553494e+01
1.196056016004572697e+01,2.491971770165468314e+01
1.198056587596456168e+01,2.473377991512102625e+01
1.200057159188339639e+01,2.344045353290185218e+01
1.202057730780222933e+01,2.260020345171453826e+01
1.204058302372106226e+01,2.082574477168739691e+01
1.206058873963989697e+01,2.028173475513063906e+01
1.208059445555873168e+01,1.910572583132925573e+01
1.210060017147756461e+01,1.852016319424385316e+01
1.212060588739639932e+01,1.693463265087036618e+01
1.214061160331523226e+01,1.588291759946297432e+01
1.216061731923406697e+01,1.415850736124178155e+01
1.218062303515290168e+01,1.353654468361707330e+01
1.220062875107173461e+01,1.322128733005490098e+01
1.222063446699056932e+01,1.213134644234106219e+01
1.224064018290940226e+01,1.166539729257789482e+01
1.226064589882823697e+01,1.041153539270721495e+01
1.228065161474707168e+01,9.965968946195193467e+00
1.230065733066590461e+01,1.015825189115363258e+01
1.232066304658473754e+01,8.618863697132024271e+00
1.234066876250357225e+01,7.935717741969027905e+00
1.236067447842240696e+01,7.749487985151317204e+00
1.238068019434123990e+01,7.673986219801127717e+00
1.240068591026007461e+01,7.561997046865988281e+00
1.242069162617890754e+01,7.088516230557065256e+00
1.244069734209774225e+01,7.020772835204053486e+00
1.246070305801657696e+01,6.489521087965846924e+00
1.248070877393540989e+01,6.565051954791188749e+00
1.250071448985424460e+01,6.627128702305784103e+00
1.252072020577307754e+01,6.755250150289430877e+00
1.254072592169191225e+01,6.654106827728845985e+00
1.256073163761074696e+01,6.461710735994870447e+00
1.258073735352957989e+01,6.370144037142244642e+00
1.260074306944841460e+01,6.092021435064028267e+00
1.262074878536724754e+01,6.762359657709520633e+00
1.264075450128608225e+01,6.883330284840873503e+00
1.266076021720491518e+01,5.719801605455738347e+00
1.268076593312374989e+01,6.152073047042653897e+00
1.270077164904258282e+01,6.333740311723076388e+00
1.272077736496141753e+01,6.307722844919157801e+00
1.274078308088025224e+01,6.283461245158070696e+00
1.276078879679908518e+01,6.900425379106037482e+00
1.278079451271791989e+01,6.061103236943753636e+00
1.280080022863675282e+01,6.234193006589792141e+00
1.282080594455558753e+01,6.624541100691528683e+00
1.284081166047442224e+01,6.413538023651478071e+00
1.286081737639325517e+01,6.755173927333138373e+00
1.288082309231208988e+01,7.304432497130395774e+00
1.290082880823092282e+01,5.981213638907723507e+00
1.292083452414975753e+01,7.019618688736654732e+00
1.294084024006859224e+01,6.908854768883882613e+00
1.296084595598742517e+01,7.087009112355788787e+00
1.298085167190625810e+01,7.414099446211305455e+00
1.300085738782509281e+01,7.556132909557071287e+00
1.302086310374392752e+01,7.506294149112807013e+00
1.304086881966276046e+01,8.181973030331043617e+00
1.306087453558159517e+01,7.558645865983140588e+00
1.308088025150042810e+01,7.581354416470595048e+00
1.310088596741926281e+01,7.644702553170319881e+00
1.312089168333809752e+01,7.185658746733403213e+00
1.314089739925693046e+01,7.745859321103188755e+00
1.316090311517576517e+01,7.689328692990271108e+00
1.318090883109459810e+01,8.762728925660475454e+00
1.320091454701343281e+01,8.320039529399480216e+00
1.322092026293226752e+01,8.164268529574195910e+00
1.324092597885110045e+01,8.299051961471214156e+00
1.326093169476993339e+01,9.273492588752391796e+00
1.328093741068876810e+01,8.891298563515812603e+00
1.330094312660760281e+01,8.478978272430042651e+00
1.332094884252643574e+01,9.330070592349391845e+00
1.334095455844527045e+01,8.683296170965199678e+00
1.336096027436410338e+01,1.003203599044240235e+01
1.338096599028293809e+01,9.484143328525117767e+00
1.340097170620177280e+01,1.003758396876610526e+01
1.342097742212060574e+01,9.873907999989297579e+00
1.344098313803944045e+01,1.029882540849851758e+01
1.346098885395827338e+01,9.792814577793080844e+00
1.348099456987710809e+01,9.973750245789453572e+00
1.350100028579594280e+01,1.049152818953928268e+01
1.352100600171477573e+01,1.042535634728016269e+01
1.354101171763361044e+01,1.118148040427965206e+01
1.356101743355244338e+01,1.083418136064911863e+01
1.358102314947127809e+01,1.167927365278420382e+01
1.360102886539011102e+01,1.099449467329062458e+01
1.362103458130894573e+01,1.219608266621577286e+01
1.364104029722777867e+01,1.230523392918062342e+01
1.366104601314661338e+01,1.321626651281683884e+01
1.368105172906544809e+01,1.286584749026997798e+01
1.370105744498428102e+01,1.263539368078305714e+01
1.372106316090311573e+01,1.358324310582443850e+01
1.374106887682194866e+01,1.352041146601120403e+01
1.376107459274078337e+01,1.383306478211270729e+01
1.378108030865961808e+01,1.419071182294607425e+01
1.380108602457845102e+01,1.463502854186153712e+01
1.382109174049728573e+01,1.376230528698460276e+01
1.384109745641611866e+01,1.471538051699077165e+01
1.386110317233495337e+01,1.570127750938359767e+01
1.388110888825378808e+01,1.521547742235726908e+01
1.390111460417262101e+01,1.541032577800412895e+01
1.392112032009145395e+01,1.573652100389762865e+01
1.394112603601028866e+01,1.631457374024545004e+01
1.396113175192912337e+01,1.685538774349264912e+01
1.398113746784795630e+01,1.689107234872927066e+01
1.400114318376679101e+01,1.708804402236719255e+01
1.402114889968562395e+01,1.806193074774294161e+01
1.404115461560445866e+01,1.820900511157348944e+01
1.406116033152329337e+01,1.880003361105346116e+01
1.408116604744212630e+01,1.924875319568278087e+01
1.410117176336095923e+01,1.989477388469508767e+01
1.412117747927979394e+01,2.010955721121808537e+01
1.414118319519862865e+01,2.032303551706332811e+01
1.416118891111746336e+01,2.081021329623439797e+01
1.418119462703629630e+01,2.054520309293717517e+01
1.420120034295512923e+01,2.162029913325732622e+01
1.422120605887396394e+01,2.232310364772246913e+01
1.424121177479279865e+01,2.292190629861491402e+01
1.426121749071163336e+01,2.308266404550481354e+01
1.428122320663046629e+01,2.376468357758000849e+01
1.430122892254929923e+01,2.361521746734049998e+01
1.432123463846813394e+01,2.366095297141611553e+01
1.434124035438696865e+01,2.407469732648056393e+01
1.436124607030580158e+01,2.489302615742015590e+01
1.438125178622463629e+01,2.538413824413884612e+01
1.440125750214346922e+01,2.422210983108321258e+01
1.442126321806230393e+01,2.401963812507012364e+01
1.444126893398113864e+01,2.477798518799945171e+01
1.446127464989997158e+01,2.504875150263076478e+01
1.448128036581880451e+01,2.351442233193372999e+01
1.450128608173763922e+01,2.357345023389909500e+01
1.452129179765647393e+01,2.303767648370603638e+01
1.454129751357530864e+01,2.170898311048541274e+01
1.456130322949414158e+01,2.175899834825101209e+01
1.458130894541297451e+01,2.021704439970894640e+01
1.460131466133180922e+01,1.982217411103022542e+01
1.462132037725064393e+01,1.836265381598006385e+01
1.464132609316947686e+01,1.728183685740786757e+01
1.466133180908831157e+01,1.618025880794136739e+01
1.468133752500714451e+01,1.496649654670517116e+01
1.470134324092597922e+01,1.320516228802745218e+01
1.472134895684481393e+01,1.235468376089219689e+01
1.474135467276364686e+01,1.147874677455581605e+01
1.476136038868247979e+01,1.047021621101419697e+01
1.478136610460131450e+01,9.581840585968510737e+00
1.480137182052014921e+01,8.700415671424071462e+00
1.482137753643898392e+01,7.187532155343315132e+00
1.484138325235781686e+01,7.220272256115404907e+00
1.486138896827664979e+01,6.125204414048339707e+00
1.488139468419548450e+01,5.634696597411488206e+00
1.490140040011431921e+01,6.242860939415916910e+00
1.492140611603315392e+01,5.973949301970317372e+00
1.494141183195198685e+01,5.806743369372884267e+00
1.496141754787081979e+01,5.079297590751875369e+00
1.498142326378965450e+01,5.562292773909170762e+00
1.500142897970848921e+01,4.555662318699416069e+00
1.502143469562732214e+01,4.856778077757800460e+00
1.504144041154615508e+01,4.558300623113083816e+00
1.506144612746498979e+01,5.401050195556600819e+00
1.508145184338382450e+01,5.256172160527595949e+00
1.510145755930265921e+01,5.348408296648432092e+00
1.512146327522149214e+01,5.238940919981388333e+00
1.514146899114032507e+01,4.561770734742511380e+00
1.516147470705915978e+01,5.078275535375794902e+00
1.518148042297799449e+01,5.358530616376326883e+00
1.520148613889682920e+01,5.771240294853622110e+00
1.522149185481566214e+01,5.069111790483081137e+00
1.524149757073449507e+01,5.123075733925663400e+00
1.526150328665332978e+01,5.151829264643724038e+00
1.528150900257216449e+01,5.667068566572926791e+00
1.530151471849099742e+01,5.594991738873790865e+00
1.532152043440983036e+01,6.519383542842019708e+00
1.534152615032866507e+01,5.855696508453211990e+00
1.536153186624749978e+01,6.303092075532308769e+00
1.538153758216633449e+01,6.489660517718323973e+00
1.540154329808516742e+01,5.669958834554041260e+00
1.542154901400400036e+01,5.845663374689052283e+00
1.544155472992283507e+01,6.752644793006728818e+00
1.546156044584166978e+01,6.785236009234172805e+00
1.548156616176050449e+01,6.852011808687070271e+00
1.550157187767933742e+01,6.869341365703963476e+00
1.552157759359817035e+01,6.821273200984181884e+00
1.554158330951700506e+01,7.486678004253521479e+00
1.556158902543583977e+01,7.510129100162505011e+00
1.558159474135467271e+01,7.032282294216665619e+00
1.560160045727350742e+01,7.443302833610234259e+00
1.562160617319234035e+01,8.694518278567651137e+00
1.564161188911117506e+01,8.675341468419183855e+00
1.566161760503000977e+01,9.157755756163496130e+00
1.568162332094884270e+01,8.844718045620455271e+00
1.570162903686767564e+01,8.520880410929230209e+00
1.572163475278651035e+01,9.843357472633943672e+00
1.574164046870534506e+01,9.790248728058346117e+00
1.576164618462417977e+01,1.042818339975092101e+01
1.578165190054301270e+01,1.115931520057626614e+01
1.580165761646184563e+01,1.062358453866032626e+01
1.582166333238068034e+01,1.063112945987143299e+01
1.584166904829951505e+01,1.048254822588221202e+01
1.586167476421834799e+01,1.194756491514708685e+01
1.588168048013718270e+01,1.154497320195378585e+01
1.590168619605601563e+01,1.206141110809775085e+01
1.592169191197485034e+01,1.189881470756972170e+01
1.594169762789368505e+01,1.331753737930125681e+01
1.596170334381251799e+01,1.368526955435003423e+01
1.598170905973135092e+01,1.346265043710652520e+01
1.600171477565018563e+01,1.483384665798216417e+01
1.602172049156902034e+01,1.555201820470878005e+01
1.604172620748785505e+01,1.467314828159805096e+01
1.606173192340668976e+01,1.529250188351894479e+01
1.608173763932552092e+01,1.629626329105726867e+01
1.610174335524435563e+01,1.595848105576313181e+01
1.612174907116319034e+01,1.699593810549669826e+01
1.614175478708202505e+01,1.698515917724760982e+01
1.616176050300085620e+01,1.739958965946037139e+01
1.618176621891969091e+01,1.839512705770456691e+01
1.620177193483852562e+01,1.981714519258650853e+01
1.622177765075736033e+01,1.956663083009547321e+01
1.624178336667619504e+01,1.998340831912352655e+01
1.626178908259502620e+01,2.060849959328591652e+01
1.628179479851386091e+01,2.120807418033332681e+01
1.630180051443269562e+01,2.259823504711254571e+01
1.632180623035153033e+01,2.383354348029404690e+01
1.634181194627036149e+01,2.410552904410332431e+01
1.636181766218919620e+01,2.461258137131451917e+01
1.638182337810803091e+01,2.500045707262236760e+01
1.640182909402686562e+01,2.618102490253180292e+01
1.642183480994570033e+01,2.682985758407458832e+01
1.644184052586453504e+01,2.794753387465244998e+01
1.646184624178336620e+01,2.890956514643522368e+01
1.648185195770220091e+01,3.010051625872709380e+01
1.650185767362103562e+01,3.113969878707069228e+01
1.652186338953986677e+01,3.185674936277552405e+01
1.654186910545870148e+01,3.285166328432917737e+01
1.656187482137753619e+01,3.486677647069689101e+01
1.658188053729637090e+01,3.548031580258923867e+01
1.660188625321520561e+01,3.655144090226394837e+01
1.662189196913404032e+01,3.716689138945529436e+01
1.664189768505287148e+01,3.841666930930473001e+01
1.666190340097170619e+01,3.977761029475294663e+01
1.668190911689054090e+01,4.180512400560178321e+01
1.670191483280937561e+01,4.301463753792791778e+01
1.672192054872820677e+01,4.354488344526949817e+01
1.674192626464704148e+01,4.544634398287623611e+01
1.676193198056587619e+01,4.620572081705866196e+01
1.678193769648471090e+01,4.744441421222645516e+01
1.680194341240354561e+01,4.939425594756012572e+01
1.682194912832238032e+01,5.087869555658961929e+01
1.684195484424121148e+01,5.227248399936154755e+01
1.686196056016004619e+01,5.333951751773697225e+01
1.688196627607888090e+01,5.512214237328065281e+01
1.690197199199771205e+01,5.591846987312058559e+01
1.692197770791654676e+01,5.738719988484626811e+01
1.694198342383538147e+01,5.779167204244373579e+01
1.696198913975421618e+01,5.988369928539562892e+01
1.698199485567305089e+01,6.046794634476876240e+01
1.700200057159188560e+01,6.151623814298194759e+01
1.702200628751071676e+01,6.257900330662782551e+01
1.704201200342955147e+01,6.212859320316461265e+01
1.706201771934838618e+01,6.205887889991950601e+01
1.708202343526722089e+01,6.179732715671057974e+01
1.710202915118605205e+01,6.145445605581917192e+01
1.712203486710488676e+01,6.130907742241140568e+01
1.714204058302372147e+01,5.930430907638112359e+01
1.716204629894255618e+01,5.871298887688676871e+01
1.718205201486139089e+01,5.715595368035013024e+01
1.720205773078022204e+01,5.481359543140651169e+01
1.722206344669905675e+01,5.282635488907341426e+01
1.724206916261789146e+01,4.999793702632456416e+01
1.726207487853672617e+01,4.857312793610022084e+01
1.728208059445555733e+01,4.566203689823407785e+01
1.730208631037439204e+01,4.266777820711284619e+01
1.732209202629322675e+01,4.114905168571314675e+01
1.734209774221206146e+01,3.821477022663729173e+01
1.736210345813089617e+01,3.666433071739012917e+01
1.738210917404973088e+01,3.534106891044648791e+01
1.740211488996856204e+01,3.450477645452077979e+01
1.742212060588739675e+01,3.332479794534041417e+01
1.744212632180623146e+01,3.312447733666127903e+01
1.746213203772506262e+01,3.209131388337991098e+01
1.748213775364389733e+01,3.091962270430798654e+01
1.750214346956273204e+01,3.136462646241931296e+01
1.752214918548156675e+01,3.170549993073777628e+01
1.754215490140040146e+01,3.196232853542807106e+01
1.756216061731923617e+01,3.208257115823748507e+01
1.758216633323806732e+01,3.339969868764233496e+01
1.760217204915690203e+01,3.342668275050610305e+01
1.762217776507573674e+01,3.377582996076945676e+01
1.764218348099457145e+01,3.381554261679996642e+01
1.766218919691340261e+01,3.442394218655559968e+01
1.768219491283223732e+01,3.486372904621970292e+01
1.770220062875107203e+01,3.590359802561837199e+01
1.772220634466990674e+01,3.661573065661524140e+01
1.774221206058874145e+01,3.646764303995848167e+01
1.776221777650757616e+01,3.613215492868760492e+01
1.778222349242640732e+01,3.624685581375879195e+01
1.780222920834524203e+01,3.635616293032537527e+01
1.782223492426407674e+01,3.663440456983580162e+01
1.784224064018290790e+01,3.561903180553534298e+01
1.786224635610174261e+01,3.554863647765783696e+01
1.788225207202057732e+01,3.324521321542468399e+01
1.790225778793941203e+01,3.234823512118009603e+01
1.792226350385824674e+01,3.131897946601725380e+01
1.794226921977708145e+01,2.929977534990878851e+01
1.796227493569591260e+01,2.734064947179041738e+01
