angle,intensity
1.000000000000000000e+01,9.873418716161143038e+01
1.002000571591883471e+01,9.920603176180563310e+01
1.004001143183766764e+01,9.834796514631675279e+01
1.006001714775650235e+01,1.000000000000000000e+02
1.008002286367533529e+01,9.870592260550404262e+01
1.010002857959417000e+01,9.850109390672827203e+01
1.012003429551300293e+01,9.744991804942060298e+01
1.014004001143183764e+01,9.669882664957604845e+01
1.016004572735067235e+01,9.586583461594172206e+01
1.018005144326950528e+01,9.371640109649706574e+01
1.020005715918833999e+01,9.012152199726233448e+01
1.022006287510717293e+01,8.847997004705921142e+01
1.024006859102600764e+01,8.375138147173318259e+01
1.026007430694484057e+01,8.075536645529214752e+01
1.028008002286367528e+01,7.513526211696108703e+01
1.030008573878250999e+01,7.087300734720075468e+01
1.032009145470134293e+01,6.531967572437356750e+01
1.034009717062017764e+01,6.024619106837492666e+01
1.036010288653901057e+01,5.487547188338140103e+01
1.038010860245784528e+01,4.944024171147626134e+01
1.040011431837667999e+01,4.430273771539708605e+01
1.042012003429551292e+01,4.062368516225539139e+01
1.044012575021434763e+01,3.577384175457714122e+01
1.046013146613318057e+01,3.327333970126912988e+01
1.048013718205201528e+01,2.926607911844259746e+01
1.050014289797084821e+01,2.762680024128128053e+01
1.052014861388968292e+01,2.529726298627009484e+01
1.054015432980851585e+01,2.367594627297723875e+01
1.056016004572735056e+01,2.193825054556345933e+01
1.058016576164618527e+01,2.148329327007005674e+01
1.060017147756501821e+01,2.049135256460121468e+01
1.062017719348385292e+01,1.991337979703639505e+01
1.064018290940268585e+01,2.027716084909081218e+01
1.066018862532152056e+01,2.069007055029088704e+01
1.068019434124035527e+01,2.052439275327347801e+01
1.070020005715918820e+01,2.048500968012680090e+01
1.072020577307802292e+01,2.046611075097595389e+01
1.074021148899685585e+01,1.894386152188302219e+01
1.076021720491569056e+01,1.930588849597484113e+01
1.078022292083452349e+01,2.070483734846964907e+01
1.080022863675335820e+01,2.080825485737170766e+01
1.082023435267219291e+01,1.978172899763019998e+01
1.084024006859102585e+01,2.056276093239595326e+01
1.086024578450986056e+01,2.030762340869500804e+01
1.088025150042869349e+01,2.071682373073130634e+01
1.090025721634752820e+01,2.075278372423193218e+01
1.092026293226636113e+01,2.190319502437809973e+01
1.094026864818519584e+01,2.140176975152109407e+01
1.096027436410403055e+01,2.254967936155270181e+01
1.098028008002286349e+01,2.250241136644411100e+01
1.100028579594169820e+01,2.241827071071752897e+01
1.102029151186053113e+01,2.290892399012432534e+01
1.104029722777936584e+01,2.424209545858437309e+01
1.106030294369819877e+01,2.292689657319938235e+01
1.108030865961703348e+01,2.471308741832065436e+01
1.110031437553586819e+01,2.480375314952063448e+01
1.112032009145470113e+01,2.464129564016569418e+01
1.114032580737353584e+01,2.496013280072663676e+01
1.116033152329236877e+01,2.562821288273872966e+01
1.118033723921120348e+01,2.637635932838363573e+01
1.120034295513003642e+01,2.635092173431763030e+01
1.122034867104887113e+01,2.638622238526463448e+01
1.124035438696770584e+01,2.628299218945036131e+01
1.126036010288653877e+01,2.794878041447543637e+01
1.128036581880537348e+01,2.728219161801289161e+01
1.130037153472420641e+01,2.864838909995055261e+01
1.132037725064304112e+01,2.841768646296732825e+01
1.134038296656187583e+01,2.997129310111644074e+01
1.136038868248070877e+01,2.920946142274050672e+01
1.138039439839954348e+01,2.959101621602390608e+01
1.140040011431837641e+01,3.067479245602078208e+01
1.142040583023721112e+01,3.071984915869884958e+01
1.144041154615604405e+01,3.158085627157447206e+01
1.146041726207487876e+01,3.304175836190557902e+01
1.148042297799371170e+01,3.221459746528721269e+01
1.150042869391254641e+01,3.422265332487501155e+01
1.152043440983138112e+01,3.416885629498484178e+01
1.154044012575021405e+01,3.458796441499413987e+01
1.156044584166904876e+01,3.410315893264984055e+01
1.158045155758788169e+01,3.504841644080604368e+01
1.160045727350671640e+01,3.600402121650007814e+01
1.162046298942555111e+01,3.544268767170220968e+01
1.164046870534438405e+01,3.623295369273033373e+01
1.166047442126321876e+01,3.546984386190749916e+01
1.168048013718205169e+01,3.585524010578097176e+01
1.170048585310088640e+01,3.530898569209337268e+01
1.172049156901971934e+01,3.575074252411079101e+01
1.174049728493855405e+01,3.574239019078108726e+01
1.176050300085738698e+01,3.418056290931820485e+01
1.178050871677622169e+01,3.481933800851427208e+01
1.180051443269505640e+01,3.266102054486173500e+01
1.182052014861388933e+01,3.149337604015342151e+01
1.184052586453272404e+01,3.127645551124878054e+01
1.186053158045155698e+01,2.951475441555140478e+01
1.188053729637039169e+01,2.906919819482670064e+01
1.190054301228922640e+01,2.627516782182677701e+01
1.192054872820805933e+01,2.531969483695259626e+01
1.194055444412689404e+01,2.356292315047339514e+01
1.196056016004572697e+01,2.091397312188777491e+01
1.198056587596456168e+01,1.887694759299081682e+01
1.200057159188339639e+01,1.792775684295385830e+01
1.202057730780222933e+01,1.584095322072017176e+01
1.204058302372106226e+01,1.394479420024262772e+01
1.206058873963989697e+01,1.283354456509574426e+01
1.208059445555873168e+01,1.186795942888289801e+01
1.210060017147756461e+01,1.103282027178255653e+01
1.212060588739639932e+01,1.010039408021954976e+01
1.214061160331523226e+01,9.490725353185137436e+00
1.216061731923406697e+01,8.732037542370427730e+00
1.218062303515290168e+01,7.904419407464076563e+00
1.220062875107173461e+01,7.695847320365003519e+00
1.222063446699056932e+01,7.859024521244278638e+00
1.224064018290940226e+01,7.892764043865248880e+00
1.226064589882823697e+01,6.615815289231707474e+00
1.228065161474707168e+01,7.248132170634233873e+00
1.230065733066590461e+01,6.728019281937169360e+00
1.232066304658473754e+01,7.692548133035262303e+00
1.234066876250357225e+01,7.714606356101172402e+00
1.236067447842240696e+01,6.714950131636599373e+00
1.238068019434123990e+01,6.802986007759169063e+00
1.240068591026007461e+01,6.216311892271646933e+00
1.242069162617890754e+01,7.387565827278959496e+00
1.244069734209774225e+01,5.781889693455118717e+00
1.246070305801657696e+01,6.398226103145752575e+00
1.248070877393540989e+01,6.037222312829697124e+00
1.250071448985424460e+01,7.505785810723528684e+00
1.252072020577307754e+01,6.718074882978609885e+00
1.254072592169191225e+01,7.508419371097635242e+00
1.256073163761074696e+01,6.163207437835187541e+00
1.258073735352957989e+01,7.344802833768361516e+00
1.260074306944841460e+01,6.455485943596120713e+00
1.262074878536724754e+01,5.822604706432628063e+00
1.264075450128608225e+01,6.786060417701247793e+00
1.266076021720491518e+01,7.056430479997278127e+00
1.268076593312374989e+01,6.893083364978997096e+00
1.270077164904258282e+01,6.584627372454182392e+00
1.272077736496141753e+01,6.770864022081975797e+00
1.274078308088025224e+01,7.252846464249183889e+00
1.276078879679908518e+01,7.536783073888499551e+00
1.278079451271791989e+01,7.462401691932480929e+00
1.280080022863675282e+01,7.422979108455073138e+00
1.282080594455558753e+01,6.166922065047652168e+00
1.284081166047442224e+01,6.501328299851229175e+00
1.286081737639325517e+01,7.014487806440965478e+00
1.288082309231208988e+01,6.533622455165939868e+00
1.290082880823092282e+01,6.416078288495541848e+00
1.292083452414975753e+01,6.876105660812663167e+00
1.294084024006859224e+01,6.883586938402417310e+00
1.296084595598742517e+01,7.646461111857671966e+00
1.298085167190625810e+01,7.268874260273183729e+00
1.300085738782509281e+01,7.619201444030352377e+00
1.302086310374392752e+01,7.093926624403585457e+00
1.304086881966276046e+01,6.923966176886001911e+00
1.306087453558159517e+01,7.904545988546900048e+00
1.308088025150042810e+01,7.908130579604732979e+00
1.310088596741926281e+01,6.523623471623222869e+00
1.312089168333809752e+01,6.512361321313775875e+00
1.314089739925693046e+01,7.498665051141368387e+00
1.316090311517576517e+01,6.809011581188260998e+00
1.318090883109459810e+01,7.083240786424149782e+00
1.320091454701343281e+01,7.229173775540784774e+00
1.322092026293226752e+01,6.996430698931495940e+00
1.324092597885110045e+01,7.636867817604304776e+00
1.326093169476993339e+01,6.744850797383328711e+00
1.328093741068876810e+01,6.132409718371623519e+00
1.330094312660760281e+01,7.186668378161692239e+00
1.332094884252643574e+01,6.134649767867210279e+00
1.334095455844527045e+01,7.169320242430926804e+00
1.336096027436410338e+01,6.267362648465461206e+00
1.338096599028293809e+01,6.879050723400963463e+00
1.340097170620177280e+01,6.161026668172439713e+00
1.342097742212060574e+01,5.714580484310682884e+00
1.344098313803944045e+01,6.679716441276742245e+00
1.346098885395827338e+01,5.884818928077836020e+00
1.348099456987710809e+01,6.604733636773137739e+00
1.350100028579594280e+01,4.635431580336929258e+00
1.352100600171477573e+01,5.716776501490516971e+00
1.354101171763361044e+01,5.438940690798430566e+00
1.356101743355244338e+01,4.588393700477348069e+00
1.358102314947127809e+01,5.781907280939733162e+00
1.360102886539011102e+01,4.729300633770417761e+00
1.362103458130894573e+01,5.456095511420611111e+00
1.364104029722777867e+01,4.023836368897841353e+00
1.366104601314661338e+01,5.604291895608022323e+00
1.368105172906544809e+01,5.266831077890246959e+00
1.370105744498428102e+01,4.025456512340642057e+00
1.372106316090311573e+01,4.070253975021082660e+00
1.374106887682194866e+01,5.501390933963497432e+00
1.376107459274078337e+01,4.747461462983706859e+00
1.378108030865961808e+01,5.656117947477249608e+00
1.380108602457845102e+01,4.106037034343557046e+00
1.382109174049728573e+01,5.174565920754658599e+00
1.384109745641611866e+01,3.967580878441055336e+00
1.386110317233495337e+01,4.885342577005217457e+00
1.388110888825378808e+01,4.255720163430960490e+00
1.390111460417262101e+01,5.312469749235510186e+00
1.392112032009145395e+01,4.046127569628004572e+00
1.394112603601028866e+01,5.480195316138071426e+00
1.396113175192912337e+01,4.597224265183217362e+00
1.398113746784795630e+01,4.721699649358197526e+00
1.400114318376679101e+01,4.521303527052640270e+00
1.402114889968562395e+01,4.892410805823524278e+00
1.404115461560445866e+01,3.811572305634265856e+00
1.406116033152329337e+01,4.903321402428706399e+00
1.408116604744212630e+01,4.255495201981557507e+00
1.410117176336095923e+01,3.905333651456005306e+00
1.412117747927979394e+01,4.364346372835818499e+00
1.414118319519862865e+01,3.900004752571733846e+00
1.416118891111746336e+01,4.554841666650490062e+00
1.418119462703629630e+01,4.032115723196595169e+00
1.420120034295512923e+01,5.336642576518908498e+00
1.422120605887396394e+01,5.300911683726730494e+00
1.424121177479279865e+01,5.485214024801021715e+00
1.426121749071163336e+01,4.102653179995212618e+00
1.428122320663046629e+01,5.058897548644696762e+00
1.430122892254929923e+01,4.501904570473141298e+00
1.432123463846813394e+01,4.860769299577589742e+00
1.434124035438696865e+01,5.205863818069826898e+00
1.436124607030580158e+01,5.149397158314912737e+00
1.438125178622463629e+01,4.061710238049565547e+00
1.440125750214346922e+01,4.571388921428230390e+00
1.442126321806230393e+01,4.435964152707306596e+00
1.444126893398113864e+01,4.591357272602556883e+00
1.446127464989997158e+01,4.994295116350341068e+00
1.448128036581880451e+01,3.799042617404112310e+00
1.450128608173763922e+01,5.276288822297983572e+00
1.452129179765647393e+01,4.157988337077320296e+00
1.454129751357530864e+01,5.002422244340039015e+00
1.456130322949414158e+01,5.071792626128237558e+00
1.458130894541297451e+01,4.729782994993660061e+00
1.460131466133180922e+01,4.634733820607285892e+00
1.462132037725064393e+01,4.714472631122847091e+00
1.464132609316947686e+01,5.012726407398300665e+00
1.466133180908831157e+01,3.976098069178289229e+00
1.468133752500714451e+01,5.435218250956501684e+00
1.470134324092597922e+01,4.216413577055931228e+00
1.472134895684481393e+01,4.169381726486768969e+00
1.474135467276364686e+01,3.883437095352799240e+00
1.476136038868247979e+01,4.835446060797766954e+00
1.478136610460131450e+01,5.001723174298186692e+00
1.480137182052014921e+01,5.360432321352386786e+00
1.482137753643898392e+01,5.321961004205722823e+00
1.484138325235781686e+01,3.936218616922853020e+00
1.486138896827664979e+01,3.965327677373782223e+00
1.488139468419548450e+01,5.611911988057535439e+00
1.490140040011431921e+01,4.742069012855286481e+00
1.492140611603315392e+01,4.601760933662336406e+00
1.494141183195198685e+01,5.216871103892419370e+00
1.496141754787081979e+01,4.461020780448738066e+00
1.498142326378965450e+01,4.820033706718500177e+00
1.500142897970848921e+01,4.688019001342341951e+00
1.502143469562732214e+01,4.725248511830452358e+00
1.504144041154615508e+01,4.806733774880221688e+00
1.506144612746498979e+01,5.874036246222383184e+00
1.508145184338382450e+01,4.417207168098209458e+00
1.510145755930265921e+01,5.627045627396006111e+00
1.512146327522149214e+01,5.788914522350573577e+00
1.514146899114032507e+01,5.099681999100144303e+00
1.516147470705915978e+01,5.252769924883590846e+00
1.518148042297799449e+01,5.621141260295078546e+00
1.520148613889682920e+01,5.915723773642208805e+00
1.522149185481566214e+01,4.927361844160780713e+00
1.524149757073449507e+01,5.078831951547065238e+00
1.526150328665332978e+01,5.241577985542309470e+00
1.528150900257216449e+01,5.858729271173221065e+00
1.530151471849099742e+01,5.676400838773544066e+00
1.532152043440983036e+01,5.608842476185052384e+00
1.534152615032866507e+01,6.275684825324641558e+00
1.536153186624749978e+01,6.066152603864953363e+00
1.538153758216633449e+01,5.670090618221514944e+00
1.540154329808516742e+01,6.593708482147338401e+00
1.542154901400400036e+01,6.526323024208558365e+00
1.544155472992283507e+01,7.788802456493693960e+00
1.546156044584166978e+01,7.658640984799832907e+00
1.548156616176050449e+01,7.862823222974424375e+00
1.550157187767933742e+01,7.945439255842322801e+00
1.552157759359817035e+01,8.076177704442581984e+00
1.554158330951700506e+01,8.538007367481560195e+00
1.556158902543583977e+01,8.124543041610301941e+00
1.558159474135467271e+01,7.938501280855549069e+00
1.560160045727350742e+01,7.274512149438237429e+00
1.562160617319234035e+01,8.511401867075008454e+00
1.564161188911117506e+01,7.910384447233473004e+00
1.566161760503000977e+01,8.726213025302572035e+00
1.568162332094884270e+01,8.242970011941217479e+00
1.570162903686767564e+01,9.052967555807226674e+00
1.572163475278651035e+01,8.765495423747262649e+00
1.574164046870534506e+01,9.603492436970988422e+00
1.576164618462417977e+01,8.811699623577567309e+00
1.578165190054301270e+01,9.918613005870398069e+00
1.580165761646184563e+01,9.325379738392513218e+00
1.582166333238068034e+01,9.657065183046910306e+00
1.584166904829951505e+01,1.133171182340830185e+01
1.586167476421834799e+01,1.017700351846470674e+01
1.588168048013718270e+01,1.213707748453245117e+01
1.590168619605601563e+01,1.061860794437806099e+01
1.592169191197485034e+01,1.200112611242757055e+01
1.594169762789368505e+01,1.209253096527960381e+01
1.596170334381251799e+01,1.254023739150467343e+01
1.598170905973135092e+01,1.318983284395276989e+01
1.600171477565018563e+01,1.297310396672247812e+01
1.602172049156902034e+01,1.259428646150801079e+01
1.604172620748785505e+01,1.398443893148636263e+01
1.606173192340668976e+01,1.396617034579064409e+01
1.608173763932552092e+01,1.474372745523362482e+01
1.610174335524435563e+01,1.558896810105029829e+01
1.612174907116319034e+01,1.551532700229548034e+01
1.614175478708202505e+01,1.550404817874714958e+01
1.616176050300085620e+01,1.676685198569565571e+01
1.618176621891969091e+01,1.573992012033928845e+01
1.620177193483852562e+01,1.766915917362913646e+01
1.622177765075736033e+01,1.726179781515321210e+01
1.624178336667619504e+01,1.816011263145860966e+01
1.626178908259502620e+01,1.908808186116189987e+01
1.628179479851386091e+01,1.844537876905323515e+01
1.630180051443269562e+01,1.889660268265673793e+01
1.632180623035153033e+01,1.967652239544436910e+01
1.634181194627036149e+01,2.008083519600720734e+01
1.636181766218919620e+01,2.046977595441473596e+01
1.638182337810803091e+01,2.157386670134123108e+01
1.640182909402686562e+01,2.200083300344908466e+01
1.642183480994570033e+01,2.290802155049302158e+01
1.644184052586453504e+01,2.356319722001953565e+01
1.646184624178336620e+01,2.354192721565964419e+01
1.648185195770220091e+01,2.434426983752846851e+01
1.650185767362103562e+01,2.578599261824506073e+01
1.652186338953986677e+01,2.605001706645279569e+01
1.654186910545870148e+01,2.725840423371734644e+01
1.656187482137753619e+01,2.635677218155684898e+01
1.658188053729637090e+01,2.816982067159262115e+01
1.660188625321520561e+01,2.837918356901174022e+01
1.662189196913404032e+01,2.867595667515565694e+01
1.664189768505287148e+01,2.951307893637984492e+01
1.666190340097170619e+01,2.939062553708480507e+01
1.668190911689054090e+01,3.003104954579210428e+01
1.670191483280937561e+01,3.010083244393228696e+01
1.672192054872820677e+01,2.901033364376687018e+01
1.674192626464704148e+01,2.904909467977376991e+01
1.676193198056587619e+01,2.790581687203499328e+01
1.678193769648471090e+01,2.683751550776323214e+01
1.680194341240354561e+01,2.746515049067739866e+01
1.682194912832238032e+01,2.589943862044204437e+01
1.684195484424121148e+01,2.473838242730940351e+01
1.686196056016004619e+01,2.374763220549078824e+01
1.688196627607888090e+01,2.141242884651874689e+01
1.690197199199771205e+01,2.017971115995143805e+01
1.692197770791654676e+01,1.865035097126986940e+01
1.694198342383538147e+01,1.653340300764902793e+01
1.696198913975421618e+01,1.441662509565580486e+01
1.698199485567305089e+01,1.218351574566668560e+01
1.700200057159188560e+01,1.149642586566218938e+01
1.702200628751071676e+01,1.016150356658714848e+01
1.704201200342955147e+01,1.016712423702377244e+01
1.706201771934838618e+01,8.594528260593241598e+00
1.708202343526722089e+01,6.961045479589970775e+00
1.710202915118605205e+01,7.805795592807418970e+00
1.712203486710488676e+01,6.968812817523847514e+00
1.714204058302372147e+01,6.960305596744411183e+00
1.716204629894255618e+01,5.963315975740405506e+00
1.718205201486139089e+01,6.453716421867585318e+00
1.720205773078022204e+01,5.644303326128008891e+00
1.722206344669905675e+01,5.365554110260776000e+00
1.724206916261789146e+01,5.768224277820364065e+00
1.726207487853672617e+01,5.655674445821308183e+00
1.728208059445555733e+01,5.401025039018232832e+00
1.730208631037439204e+01,5.541724290313869261e+00
1.732209202629322675e+01,5.779323590399869204e+00
1.734209774221206146e+01,5.800293953389513035e+00
1.736210345813089617e+01,5.678029875744271315e+00
1.738210917404973088e+01,6.405387260401083083e+00
1.740211488996856204e+01,5.781811781915671133e+00
1.742212060588739675e+01,6.494511621549063918e+00
1.744212632180623146e+01,6.173004957391506231e+00
1.746213203772506262e+01,6.394158393654063133e+00
1.748213775364389733e+01,6.451519915911010372e+00
1.750214346956273204e+01,5.513140246211371220e+00
1.752214918548156675e+01,6.600188201830114565e+00
1.754215490140040146e+01,5.545823070784237530e+00
1.756216061731923617e+01,6.345400533010148614e+00
1.758216633323806732e+01,6.455231520551281577e+00
1.760217204915690203e+01,6.444651043265201551e+00
1.762217776507573674e+01,5.392308696368329102e+00
1.764218348099457145e+01,5.552995863243377350e+00
1.766218919691340261e+01,6.351454029613422314e+00
1.768219491283223732e+01,6.822821628590853393e+00
1.770220062875107203e+01,7.255860402957108768e+00
1.772220634466990674e+01,6.176387572530556369e+00
1.774221206058874145e+01,5.749080685658693568e+00
1.776221777650757616e+01,7.077651130065873986e+00
1.778222349242640732e+01,5.792316623201023695e+00
1.780222920834524203e+01,7.115064058654199108e+00
1.782223492426407674e+01,6.991978060160447761e+00
1.784224064018290790e+01,6.961373400556407631e+00
1.786224635610174261e+01,5.855043589670679616e+00
1.788225207202057732e+01,5.159735004032199868e+00
1.790225778793941203e+01,6.571007888558179744e+00
1.792226350385824674e+01,4.821426272369263799e+00
1.794226921977708145e+01,6.098103731791773896e+00
1.796227493569591260e+01,4.575255408448763994e+00
