angle,intensity
1.000000000000000000e+01,9.506474150345476914e+01
1.002000571591883471e+01,9.769232148749146916e+01
1.004001143183766764e+01,9.524713964703042279e+01
1.006001714775650235e+01,9.149292479799350986e+01
1.008002286367533529e+01,8.771582059850885571e+01
1.010002857959417000e+01,8.437326271375883380e+01
1.012003429551300293e+01,7.971239739539697666e+01
1.014004001143183764e+01,7.509123380489882038e+01
1.016004572735067235e+01,6.981704545251560035e+01
1.018005144326950528e+01,6.678457712876659969e+01
1.020005715918833999e+01,6.216200919761026000e+01
1.022006287510717293e+01,5.740793145084418114e+01
1.024006859102600764e+01,5.400682070248953437e+01
1.026007430694484057e+01,5.037805203082187688e+01
1.028008002286367528e+01,4.639524315784221642e+01
1.030008573878250999e+01,4.395496972703497818e+01
1.032009145470134293e+01,4.092676400137439430e+01
1.034009717062017764e+01,3.889746895226603840e+01
1.036010288653901057e+01,3.655054855087303167e+01
1.038010860245784528e+01,3.520123418898725021e+01
1.040011431837667999e+01,3.395194425890819900e+01
1.042012003429551292e+01,3.238623002318381339e+01
1.044012575021434763e+01,3.198651684531917638e+01
1.046013146613318057e+01,3.024648402728895746e+01
1.048013718205201528e+01,2.989817452463120873e+01
1.050014289797084821e+01,2.967578774327915170e+01
1.052014861388968292e+01,2.912252830583652496e+01
1.054015432980851585e+01,2.924821922100739613e+01
1.056016004572735056e+01,2.880939646120617681e+01
1.058016576164618527e+01,2.852470383827538214e+01
1.060017147756501821e+01,2.869068409138947828e+01
1.062017719348385292e+01,2.808446378965651746e+01
1.064018290940268585e+01,2.813241212335157826e+01
1.066018862532152056e+01,2.903585592745090338e+01
1.068019434124035527e+01,2.893744285809469829e+01
1.070020005715918820e+01,2.855623667437522073e+01
1.072020577307802292e+01,2.950583419298467192e+01
1.074021148899685585e+01,3.003370146461129053e+01
1.076021720491569056e+01,2.920962932203405416e+01
1.078022292083452349e+01,3.086528164263613050e+01
1.080022863675335820e+01,2.977640657259235368e+01
1.082023435267219291e+01,3.010948488704522674e+01
1.084024006859102585e+01,3.135557934670888613e+01
1.086024578450986056e+01,3.153184677339614694e+01
1.088025150042869349e+01,3.203756555356945057e+01
1.090025721634752820e+01,3.292952885316142897e+01
1.092026293226636113e+01,3.271770838211875088e+01
1.094026864818519584e+01,3.313841802249672241e+01
1.096027436410403055e+01,3.372098143864116082e+01
1.098028008002286349e+01,3.410296257631679850e+01
1.100028579594169820e+01,3.495701085156166243e+01
1.102029151186053113e+01,3.513675030848450831e+01
1.104029722777936584e+01,3.576498342177290368e+01
1.106030294369819877e+01,3.629838242336870735e+01
1.108030865961703348e+01,3.648146879025280498e+01
1.110031437553586819e+01,3.703592737474644991e+01
1.112032009145470113e+01,3.824589516286716417e+01
1.114032580737353584e+01,3.928488696581245421e+01
1.116033152329236877e+01,3.920358955706798554e+01
1.118033723921120348e+01,3.944801349359723730e+01
1.120034295513003642e+01,3.990803923214171789e+01
1.122034867104887113e+01,4.104762066083846861e+01
1.124035438696770584e+01,4.139556515085634203e+01
1.126036010288653877e+01,4.246091485786324426e+01
1.128036581880537348e+01,4.310640048682447656e+01
1.130037153472420641e+01,4.302953114408817470e+01
1.132037725064304112e+01,4.334375246791715597e+01
1.134038296656187583e+01,4.397684277349290483e+01
1.136038868248070877e+01,4.484223920390360263e+01
1.138039439839954348e+01,4.588517943046534242e+01
1.140040011431837641e+01,4.554774745325211427e+01
1.142040583023721112e+01,4.518482051102824926e+01
1.144041154615604405e+01,4.689935843369880786e+01
1.146041726207487876e+01,4.676353902810392071e+01
1.148042297799371170e+01,4.636949587995210464e+01
1.150042869391254641e+01,4.614893466257205290e+01
1.152043440983138112e+01,4.723351787520381606e+01
1.154044012575021405e+01,4.605981353944112300e+01
1.156044584166904876e+01,4.556720394457231293e+01
1.158045155758788169e+01,4.567583126844574792e+01
1.160045727350671640e+01,4.533125344057230421e+01
1.162046298942555111e+01,4.471716984872097100e+01
1.164046870534438405e+01,4.362933396646558037e+01
1.166047442126321876e+01,4.281111150225301287e+01
1.168048013718205169e+01,4.198978200600868860e+01
1.170048585310088640e+01,4.045022405857233139e+01
1.172049156901971934e+01,3.940732259027395656e+01
1.174049728493855405e+01,3.687467503673575209e+01
1.176050300085738698e+01,3.612565106413997285e+01
1.178050871677622169e+01,3.436414300514533693e+01
1.180051443269505640e+01,3.240067412382127543e+01
1.182052014861388933e+01,3.024692620972021828e+01
1.184052586453272404e+01,2.732398675743717220e+01
1.186053158045155698e+01,2.514995820351585820e+01
1.188053729637039169e+01,2.282478113471291081e+01
1.190054301228922640e+01,2.201430248589918648e+01
1.192054872820805933e+01,1.912557288931498078e+01
1.194055444412689404e+01,1.735466902191418015e+01
1.196056016004572697e+01,1.561618995056257475e+01
1.198056587596456168e+01,1.443441972664145112e+01
1.200057159188339639e+01,1.255610250060932565e+01
1.202057730780222933e+01,1.192199459586942112e+01
1.204058302372106226e+01,1.109690760788993913e+01
1.206058873963989697e+01,1.077171881154885114e+01
1.208059445555873168e+01,9.554349648263764649e+00
1.210060017147756461e+01,9.644052522065287292e+00
1.212060588739639932e+01,8.075920234384820873e+00
1.214061160331523226e+01,8.305355942708667172e+00
1.216061731923406697e+01,6.764719835882443633e+00
1.218062303515290168e+01,7.500244017389075424e+00
1.220062875107173461e+01,6.736306919818590089e+00
1.222063446699056932e+01,7.002202153714335076e+00
1.224064018290940226e+01,6.396589105445029233e+00
1.226064589882823697e+01,6.181885152100923264e+00
1.228065161474707168e+01,6.122573492222633362e+00
1.230065733066590461e+01,6.211995921373969054e+00
1.232066304658473754e+01,5.484567672473498412e+00
1.234066876250357225e+01,5.601835593284540948e+00
1.236067447842240696e+01,5.642230877263656907e+00
1.238068019434123990e+01,5.781256330233924601e+00
1.240068591026007461e+01,4.781420648629671533e+00
1.242069162617890754e+01,5.017662046648721841e+00
1.244069734209774225e+01,5.552963248980592681e+00
1.246070305801657696e+01,4.452349784536140831e+00
1.248070877393540989e+01,5.014696733314442767e+00
1.250071448985424460e+01,4.539864996826375787e+00
1.252072020577307754e+01,4.864559146956333180e+00
1.254072592169191225e+01,4.308138939819020408e+00
1.256073163761074696e+01,5.150269409704786305e+00
1.258073735352957989e+01,4.374900691738183411e+00
1.260074306944841460e+01,4.127468691112690991e+00
1.262074878536724754e+01,4.748832368750570687e+00
1.264075450128608225e+01,4.040947116229988367e+00
1.266076021720491518e+01,3.656038822256428844e+00
1.268076593312374989e+01,4.275940266500526832e+00
1.270077164904258282e+01,3.456194311248724116e+00
1.272077736496141753e+01,4.126319850241340959e+00
1.274078308088025224e+01,3.313354073504300334e+00
1.276078879679908518e+01,2.974567396205673120e+00
1.278079451271791989e+01,3.316055260572078112e+00
1.280080022863675282e+01,3.201554491392950119e+00
1.282080594455558753e+01,3.439027632751923136e+00
1.284081166047442224e+01,4.286471916605886889e+00
1.286081737639325517e+01,3.438774335534216409e+00
1.288082309231208988e+01,3.211740648548358834e+00
1.290082880823092282e+01,2.981151257573958269e+00
1.292083452414975753e+01,3.459851224551253601e+00
1.294084024006859224e+01,3.520102269518322835e+00
1.296084595598742517e+01,3.045086768159366297e+00
1.298085167190625810e+01,2.858843944666492387e+00
1.300085738782509281e+01,3.812869887843471695e+00
1.302086310374392752e+01,3.038838743764686434e+00
1.304086881966276046e+01,3.803245578609305344e+00
1.306087453558159517e+01,3.553900795544587154e+00
1.308088025150042810e+01,2.538463065659984697e+00
1.310088596741926281e+01,2.538680220084306605e+00
1.312089168333809752e+01,3.615741539611490474e+00
1.314089739925693046e+01,3.721824174611752412e+00
1.316090311517576517e+01,3.349848973374074834e+00
1.318090883109459810e+01,2.632266426025560158e+00
1.320091454701343281e+01,3.654021295534664482e+00
1.322092026293226752e+01,3.184646181194989545e+00
1.324092597885110045e+01,2.345956165873195332e+00
1.326093169476993339e+01,3.672532438537540855e+00
1.328093741068876810e+01,3.252910715597894686e+00
1.330094312660760281e+01,2.882653940758144628e+00
1.332094884252643574e+01,3.098095405809603964e+00
1.334095455844527045e+01,3.120375821010307860e+00
1.336096027436410338e+01,2.780850264876535860e+00
1.338096599028293809e+01,3.529819890033483176e+00
1.340097170620177280e+01,3.184861168191552849e+00
1.342097742212060574e+01,3.206514715721360709e+00
1.344098313803944045e+01,3.615480290606363223e+00
1.346098885395827338e+01,2.801756675916115213e+00
1.348099456987710809e+01,3.324942582583171991e+00
1.350100028579594280e+01,2.808248193341497778e+00
1.352100600171477573e+01,3.863901239302728996e+00
1.354101171763361044e+01,2.888478736189254992e+00
1.356101743355244338e+01,3.168928060142362391e+00
1.358102314947127809e+01,2.994598667825104421e+00
1.360102886539011102e+01,3.049233807726408063e+00
1.362103458130894573e+01,2.476390276500973098e+00
1.364104029722777867e+01,2.662817962124099935e+00
1.366104601314661338e+01,3.065242540139538008e+00
1.368105172906544809e+01,3.283483133626393435e+00
1.370105744498428102e+01,2.501394953223367246e+00
1.372106316090311573e+01,2.972793408427119921e+00
1.374106887682194866e+01,3.563755811977601606e+00
1.376107459274078337e+01,2.796662231065081272e+00
1.378108030865961808e+01,3.223517436299508709e+00
1.380108602457845102e+01,3.238341054545141873e+00
1.382109174049728573e+01,3.325977064737656974e+00
1.384109745641611866e+01,3.958022898817607160e+00
1.386110317233495337e+01,3.045664942268508035e+00
1.388110888825378808e+01,3.498528691862812678e+00
1.390111460417262101e+01,3.215299093474115466e+00
1.392112032009145395e+01,3.525102862330907527e+00
1.394112603601028866e+01,3.601969614432792621e+00
1.396113175192912337e+01,3.618379110419909672e+00
1.398113746784795630e+01,3.041049382074612950e+00
1.400114318376679101e+01,2.968508680507296660e+00
1.402114889968562395e+01,3.665184756057728421e+00
1.404115461560445866e+01,3.352917048045823023e+00
1.406116033152329337e+01,2.831409447266209245e+00
1.408116604744212630e+01,4.026647868492426063e+00
1.410117176336095923e+01,3.362132078845856853e+00
1.412117747927979394e+01,2.870464884806879891e+00
1.414118319519862865e+01,2.599918438346698668e+00
1.416118891111746336e+01,3.302422518519029460e+00
1.418119462703629630e+01,3.165816114424546246e+00
1.420120034295512923e+01,3.633482214832738144e+00
1.422120605887396394e+01,4.105315449596337096e+00
1.424121177479279865e+01,3.155360838504864596e+00
1.426121749071163336e+01,2.761491963012661977e+00
1.428122320663046629e+01,3.298760540338931957e+00
1.430122892254929923e+01,3.447607767925405131e+00
1.432123463846813394e+01,3.376197355362487329e+00
1.434124035438696865e+01,3.872598822054188261e+00
1.436124607030580158e+01,3.778888180447554035e+00
1.438125178622463629e+01,3.150126064858793207e+00
1.440125750214346922e+01,3.220208785151928765e+00
1.442126321806230393e+01,4.460872224326399405e+00
1.444126893398113864e+01,3.453928203945850761e+00
1.446127464989997158e+01,4.106499945204410196e+00
1.448128036581880451e+01,4.097087591899926551e+00
1.450128608173763922e+01,4.219719785887891206e+00
1.452129179765647393e+01,4.061333041066601091e+00
1.454129751357530864e+01,3.994303689172443050e+00
1.456130322949414158e+01,3.917205369528053094e+00
1.458130894541297451e+01,3.822494242475817039e+00
1.460131466133180922e+01,3.794204286419437189e+00
1.462132037725064393e+01,4.416137961059186878e+00
1.464132609316947686e+01,4.985711972580890716e+00
1.466133180908831157e+01,5.052899852634666900e+00
1.468133752500714451e+01,5.459475688997311948e+00
1.470134324092597922e+01,4.486893514593827348e+00
1.472134895684481393e+01,4.572222164776861497e+00
1.474135467276364686e+01,4.516906183603152769e+00
1.476136038868247979e+01,5.050083893215393971e+00
1.478136610460131450e+01,5.791941202809471889e+00
1.480137182052014921e+01,5.411725677100713838e+00
1.482137753643898392e+01,5.594712583396526995e+00
1.484138325235781686e+01,5.778090772644076445e+00
1.486138896827664979e+01,5.918253614690200948e+00
1.488139468419548450e+01,5.786853655788753770e+00
1.490140040011431921e+01,6.896588001645784338e+00
1.492140611603315392e+01,6.848415744800197658e+00
1.494141183195198685e+01,6.324048322708705427e+00
1.496141754787081979e+01,6.749663562302510300e+00
1.498142326378965450e+01,6.754832219414977246e+00
1.500142897970848921e+01,6.899567063239619991e+00
1.502143469562732214e+01,6.790802860161797128e+00
1.504144041154615508e+01,6.760649454568439687e+00
1.506144612746498979e+01,8.196455123195374171e+00
1.508145184338382450e+01,7.499867900428903056e+00
1.510145755930265921e+01,8.252538623433434140e+00
1.512146327522149214e+01,8.372070825384744452e+00
1.514146899114032507e+01,8.530473957072922886e+00
1.516147470705915978e+01,8.747459201923705407e+00
1.518148042297799449e+01,9.436559927472320197e+00
1.520148613889682920e+01,8.502535337713620578e+00
1.522149185481566214e+01,9.397626751906003051e+00
1.524149757073449507e+01,9.608202352609003682e+00
1.526150328665332978e+01,9.657454450036475180e+00
1.528150900257216449e+01,1.044960551372679092e+01
1.530151471849099742e+01,9.767585870662166769e+00
1.532152043440983036e+01,1.039217899719778870e+01
1.534152615032866507e+01,1.077860889137076583e+01
1.536153186624749978e+01,1.094353886761392403e+01
1.538153758216633449e+01,1.075381096152630533e+01
1.540154329808516742e+01,1.218552345885107080e+01
1.542154901400400036e+01,1.232206047682167238e+01
1.544155472992283507e+01,1.229039651235588160e+01
1.546156044584166978e+01,1.270406059738976623e+01
1.548156616176050449e+01,1.312877409437520271e+01
1.550157187767933742e+01,1.308245817741245531e+01
1.552157759359817035e+01,1.405762118796999438e+01
1.554158330951700506e+01,1.453854890170950220e+01
1.556158902543583977e+01,1.503246542225246785e+01
1.558159474135467271e+01,1.531709872121761151e+01
1.560160045727350742e+01,1.513996369305174383e+01
1.562160617319234035e+01,1.579188834971424882e+01
1.564161188911117506e+01,1.637814997147439655e+01
1.566161760503000977e+01,1.654516583627099635e+01
1.568162332094884270e+01,1.653451697518367425e+01
1.570162903686767564e+01,1.743871879616045106e+01
1.572163475278651035e+01,1.817316656207255221e+01
1.574164046870534506e+01,1.906824332686226597e+01
1.576164618462417977e+01,1.896109031938063794e+01
1.578165190054301270e+01,1.938231878189397861e+01
1.580165761646184563e+01,2.046780267970101619e+01
1.582166333238068034e+01,2.069116271596539036e+01
1.584166904829951505e+01,2.062401256100905655e+01
1.586167476421834799e+01,2.184858495703554837e+01
1.588168048013718270e+01,2.267387059741502497e+01
1.590168619605601563e+01,2.300984703815897348e+01
1.592169191197485034e+01,2.343158553195798532e+01
1.594169762789368505e+01,2.390607941030686234e+01
1.596170334381251799e+01,2.398981809764471151e+01
1.598170905973135092e+01,2.492938527243457969e+01
1.600171477565018563e+01,2.586407294502499354e+01
1.602172049156902034e+01,2.568844839991562878e+01
1.604172620748785505e+01,2.671537923928163849e+01
1.606173192340668976e+01,2.757362333458351955e+01
1.608173763932552092e+01,2.810943882128380977e+01
1.610174335524435563e+01,2.923718414160470047e+01
1.612174907116319034e+01,2.961964269829312713e+01
1.614175478708202505e+01,2.957971978862250495e+01
1.616176050300085620e+01,3.008332851475319814e+01
1.618176621891969091e+01,3.091265472290940508e+01
1.620177193483852562e+01,3.079032537062045094e+01
1.622177765075736033e+01,3.178366126642411160e+01
1.624178336667619504e+01,3.133166946531878949e+01
1.626178908259502620e+01,3.174890023996162469e+01
1.628179479851386091e+01,3.121776244796964050e+01
1.630180051443269562e+01,3.082380616870698375e+01
1.632180623035153033e+01,3.083999631195580093e+01
1.634181194627036149e+01,3.114851027756682100e+01
1.636181766218919620e+01,2.898511307968312778e+01
1.638182337810803091e+01,2.938108887838756544e+01
1.640182909402686562e+01,2.757793080438250755e+01
1.642183480994570033e+01,2.690889474738295561e+01
1.644184052586453504e+01,2.660161217313951099e+01
1.646184624178336620e+01,2.442333901395857154e+01
1.648185195770220091e+01,2.281146137575030508e+01
1.650185767362103562e+01,2.155077685779117047e+01
1.652186338953986677e+01,2.004323124377455656e+01
1.654186910545870148e+01,1.885789471224185831e+01
1.656187482137753619e+01,1.764834041862920699e+01
1.658188053729637090e+01,1.657994341508068459e+01
1.660188625321520561e+01,1.507357356514953217e+01
1.662189196913404032e+01,1.333115502825313214e+01
1.664189768505287148e+01,1.308202403946623527e+01
1.666190340097170619e+01,1.148449199033341017e+01
1.668190911689054090e+01,1.140451912286785685e+01
1.670191483280937561e+01,9.923964957853932845e+00
1.672192054872820677e+01,9.882061322892575106e+00
1.674192626464704148e+01,9.538085834663416307e+00
1.676193198056587619e+01,8.317843617414112600e+00
1.678193769648471090e+01,8.729236097848099618e+00
1.680194341240354561e+01,8.126718555732040272e+00
1.682194912832238032e+01,8.159010412367715404e+00
1.684195484424121148e+01,6.862996840162063350e+00
1.686196056016004619e+01,7.301572142419514577e+00
1.688196627607888090e+01,6.189823948991033831e+00
1.690197199199771205e+01,7.201228079390019410e+00
1.692197770791654676e+01,6.666803085983326937e+00
1.694198342383538147e+01,6.357936775139076957e+00
1.696198913975421618e+01,6.239307785230744585e+00
1.698199485567305089e+01,6.515345467204638474e+00
1.700200057159188560e+01,6.284976062085197768e+00
1.702200628751071676e+01,6.063672375362316735e+00
1.704201200342955147e+01,5.185046889754474364e+00
1.706201771934838618e+01,5.669869129599591773e+00
1.708202343526722089e+01,5.723143493030763196e+00
1.710202915118605205e+01,6.052556252631565492e+00
1.712203486710488676e+01,4.878419766338619290e+00
1.714204058302372147e+01,5.284578973780792666e+00
1.716204629894255618e+01,5.694280616808404361e+00
1.718205201486139089e+01,5.275736152587215955e+00
1.720205773078022204e+01,5.022030513675670882e+00
1.722206344669905675e+01,5.912432767473210227e+00
1.724206916261789146e+01,5.500940444561932985e+00
1.726207487853672617e+01,5.486674064149664964e+00
1.728208059445555733e+01,5.676245754321075587e+00
1.730208631037439204e+01,5.304326678946356566e+00
1.732209202629322675e+01,4.570252770694406053e+00
1.734209774221206146e+01,5.477096010987420271e+00
1.736210345813089617e+01,5.084331772222417278e+00
1.738210917404973088e+01,4.988130044041946931e+00
1.740211488996856204e+01,5.093560714294171454e+00
1.742212060588739675e+01,4.812679219580845213e+00
1.744212632180623146e+01,5.045992620063034728e+00
1.746213203772506262e+01,5.106685306469246122e+00
1.748213775364389733e+01,4.537804373802729607e+00
1.750214346956273204e+01,5.272028189256105613e+00
1.752214918548156675e+01,4.996763146148460955e+00
1.754215490140040146e+01,4.875412974561577073e+00
1.756216061731923617e+01,5.636848571999667712e+00
1.758216633323806732e+01,5.030365852275617833e+00
1.760217204915690203e+01,4.669389508257868471e+00
1.762217776507573674e+01,5.099181074079597309e+00
1.764218348099457145e+01,5.312255253141485056e+00
1.766218919691340261e+01,5.647854925377126634e+00
1.768219491283223732e+01,4.921018361891897008e+00
1.770220062875107203e+01,4.667528892922316430e+00
1.772220634466990674e+01,4.801740398689267053e+00
1.774221206058874145e+01,4.919762899793882482e+00
1.776221777650757616e+01,5.130708287474032403e+00
1.778222349242640732e+01,5.939284170036019717e+00
1.780222920834524203e+01,4.810671832357117594e+00
1.782223492426407674e+01,5.401397954435154247e+00
1.784224064018290790e+01,6.160233375440476777e+00
1.786224635610174261e+01,6.508926912634413142e+00
1.788225207202057732e+01,6.168020974989565808e+00
1.790225778793941203e+01,6.185115617122328935e+00
1.792226350385824674e+01,5.853781755840303802e+00
1.794226921977708145e+01,5.976279808116577996e+00
1.796227493569591260e+01,6.399917691297991595e+00
