angle,intensity
1.000000000000000000e+01,5.304664593766656111e+01
1.002000571591883471e+01,5.276262539109828253e+01
1.004001143183766764e+01,5.250364707909023565e+01
1.006001714775650235e+01,5.249442430415578542e+01
1.008002286367533529e+01,5.343808400577469797e+01
1.010002857959417000e+01,5.239848170389793580e+01
1.012003429551300293e+01,5.107961798742381632e+01
1.014004001143183764e+01,5.103549386279794220e+01
1.016004572735067235e+01,4.961520862170985424e+01
1.018005144326950528e+01,4.836133271317962823e+01
1.020005715918833999e+01,4.768424554817126193e+01
1.022006287510717293e+01,4.640848451521247142e+01
1.024006859102600764e+01,4.469468554426310902e+01
1.026007430694484057e+01,4.256144815668125858e+01
1.028008002286367528e+01,4.000623011487958536e+01
1.030008573878250999e+01,3.753757367849364357e+01
1.032009145470134293e+01,3.521211602715943911e+01
1.034009717062017764e+01,3.303265475672036899e+01
1.036010288653901057e+01,3.141076128224397479e+01
1.038010860245784528e+01,2.809802535246276989e+01
1.040011431837667999e+01,2.592504441679811933e+01
1.042012003429551292e+01,2.284943810560976374e+01
1.044012575021434763e+01,2.142180208191002322e+01
1.046013146613318057e+01,1.980568934791429569e+01
1.048013718205201528e+01,1.755314830594730324e+01
1.050014289797084821e+01,1.680209742047170351e+01
1.052014861388968292e+01,1.541857803905267232e+01
1.054015432980851585e+01,1.370803261873261292e+01
1.056016004572735056e+01,1.350094151070456761e+01
1.058016576164618527e+01,1.223038251537584564e+01
1.060017147756501821e+01,1.171656106511475848e+01
1.062017719348385292e+01,1.164501694218801831e+01
1.064018290940268585e+01,1.144547613382458451e+01
1.066018862532152056e+01,1.129906420453453819e+01
1.068019434124035527e+01,1.064491676644508544e+01
1.070020005715918820e+01,1.060983968485190054e+01
1.072020577307802292e+01,1.016659485953561770e+01
1.074021148899685585e+01,1.055304757937744498e+01
1.076021720491569056e+01,1.060248719201932133e+01
1.078022292083452349e+01,1.074385489700620511e+01
1.080022863675335820e+01,1.083531661612548547e+01
1.082023435267219291e+01,1.134854138613551733e+01
1.084024006859102585e+01,1.097340162666804098e+01
1.086024578450986056e+01,1.047041423665369209e+01
1.088025150042869349e+01,1.065743439426619510e+01
1.090025721634752820e+01,1.085215249001151783e+01
1.092026293226636113e+01,1.090848741710415304e+01
1.094026864818519584e+01,1.122841639721960050e+01
1.096027436410403055e+01,1.178384109132567836e+01
1.098028008002286349e+01,1.124368734691883454e+01
1.100028579594169820e+01,1.210687683745693377e+01
1.102029151186053113e+01,1.246766397778971047e+01
1.104029722777936584e+01,1.172744787351220808e+01
1.106030294369819877e+01,1.249921146414517992e+01
1.108030865961703348e+01,1.267374458660420622e+01
1.110031437553586819e+01,1.319322897467845479e+01
1.112032009145470113e+01,1.237978619363408228e+01
1.114032580737353584e+01,1.292669459074966909e+01
1.116033152329236877e+01,1.369142490833855064e+01
1.118033723921120348e+01,1.403085713973326776e+01
1.120034295513003642e+01,1.335507341567970485e+01
1.122034867104887113e+01,1.344613976544932576e+01
1.124035438696770584e+01,1.437232396108182364e+01
1.126036010288653877e+01,1.469317131548408284e+01
1.128036581880537348e+01,1.435284730685451393e+01
1.130037153472420641e+01,1.528152911145103587e+01
1.132037725064304112e+01,1.525820225278778075e+01
1.134038296656187583e+01,1.535900431524433785e+01
1.136038868248070877e+01,1.583240022152734738e+01
1.138039439839954348e+01,1.626928757076641574e+01
1.140040011431837641e+01,1.607389801727884304e+01
1.142040583023721112e+01,1.745848952191075298e+01
1.144041154615604405e+01,1.746174941366285793e+01
1.146041726207487876e+01,1.683988870055404874e+01
1.148042297799371170e+01,1.847214058938894254e+01
1.150042869391254641e+01,1.774087175893391333e+01
1.152043440983138112e+01,1.850920532060531798e+01
1.154044012575021405e+01,1.823632694363283591e+01
1.156044584166904876e+01,1.957007596441339103e+01
1.158045155758788169e+01,1.971569686331835314e+01
1.160045727350671640e+01,2.010914729682555446e+01
1.162046298942555111e+01,2.035166162963879088e+01
1.164046870534438405e+01,2.020793217951696619e+01
1.166047442126321876e+01,2.156478389454443700e+01
1.168048013718205169e+01,2.181603540250078055e+01
1.170048585310088640e+01,2.178885375938240898e+01
1.172049156901971934e+01,2.248736554481750005e+01
1.174049728493855405e+01,2.234148599789832090e+01
1.176050300085738698e+01,2.290794167334990306e+01
1.178050871677622169e+01,2.342279114641373994e+01
1.180051443269505640e+01,2.321559413596349231e+01
1.182052014861388933e+01,2.457640417410652134e+01
1.184052586453272404e+01,2.444254354646724536e+01
1.186053158045155698e+01,2.412753390687171873e+01
1.188053729637039169e+01,2.532375034787667900e+01
1.190054301228922640e+01,2.581915094942046451e+01
1.192054872820805933e+01,2.559548484180448824e+01
1.194055444412689404e+01,2.588580858351183522e+01
1.196056016004572697e+01,2.533930225856516927e+01
1.198056587596456168e+01,2.677759906775957433e+01
1.200057159188339639e+01,2.516259102021458460e+01
1.202057730780222933e+01,2.565008288437891792e+01
1.204058302372106226e+01,2.626879618779957326e+01
1.206058873963989697e+01,2.621858438011079784e+01
1.208059445555873168e+01,2.593322134302740523e+01
1.210060017147756461e+01,2.527774043534414616e+01
1.212060588739639932e+01,2.522557550426052586e+01
1.214061160331523226e+01,2.501408480859654304e+01
1.216061731923406697e+01,2.367334124511811311e+01
1.218062303515290168e+01,2.344072017672803909e+01
1.220062875107173461e+01,2.341502294243214521e+01
1.222063446699056932e+01,2.265768279402098528e+01
1.224064018290940226e+01,2.159961045675478886e+01
1.226064589882823697e+01,2.126802169407675080e+01
1.228065161474707168e+01,2.065290711005615520e+01
1.230065733066590461e+01,2.038529127590549450e+01
1.232066304658473754e+01,1.950090704418055765e+01
1.234066876250357225e+01,1.927083065455362387e+01
1.236067447842240696e+01,1.815426197642914730e+01
1.238068019434123990e+01,1.951880475666908765e+01
1.240068591026007461e+01,1.829023658187355750e+01
1.242069162617890754e+01,1.791761498033403655e+01
1.244069734209774225e+01,1.795404376727366014e+01
1.246070305801657696e+01,1.922636010218423053e+01
1.248070877393540989e+01,1.835890863284641839e+01
1.250071448985424460e+01,1.919418338000044599e+01
1.252072020577307754e+01,2.019097923058645350e+01
1.254072592169191225e+01,2.075112955455344377e+01
1.256073163761074696e+01,2.057526530615661642e+01
1.258073735352957989e+01,2.023117242930941728e+01
1.260074306944841460e+01,2.026177048760474975e+01
1.262074878536724754e+01,2.168859334195288469e+01
1.264075450128608225e+01,2.246496662833978419e+01
1.266076021720491518e+01,2.243419773107638449e+01
1.268076593312374989e+01,2.175410272293517622e+01
1.270077164904258282e+01,2.301038032378805553e+01
1.272077736496141753e+01,2.333792824341901095e+01
1.274078308088025224e+01,2.412671637185520623e+01
1.276078879679908518e+01,2.357997084812200939e+01
1.278079451271791989e+01,2.527006241950850551e+01
1.280080022863675282e+01,2.551822716077384712e+01
1.282080594455558753e+01,2.618820021010168730e+01
1.284081166047442224e+01,2.659942382652647552e+01
1.286081737639325517e+01,2.707028353612797744e+01
1.288082309231208988e+01,2.800380184942474671e+01
1.290082880823092282e+01,2.800099996017252124e+01
1.292083452414975753e+01,2.909304224342817236e+01
1.294084024006859224e+01,2.967795788948258107e+01
1.296084595598742517e+01,3.061584381326388282e+01
1.298085167190625810e+01,3.080146096855170157e+01
1.300085738782509281e+01,3.189355094176572791e+01
1.302086310374392752e+01,3.336364864173081912e+01
1.304086881966276046e+01,3.286838798923285765e+01
1.306087453558159517e+01,3.406640131638977920e+01
1.308088025150042810e+01,3.408782374606017385e+01
1.310088596741926281e+01,3.572865853753914678e+01
1.312089168333809752e+01,3.589806459457516752e+01
1.314089739925693046e+01,3.772099682617594141e+01
1.316090311517576517e+01,3.807916522617501442e+01
1.318090883109459810e+01,3.892160383672477764e+01
1.320091454701343281e+01,3.976850543199710586e+01
1.322092026293226752e+01,4.031976863693900981e+01
1.324092597885110045e+01,4.033502640853067334e+01
1.326093169476993339e+01,4.078544553983215337e+01
1.328093741068876810e+01,4.117486900010140261e+01
1.330094312660760281e+01,4.137732621527038646e+01
1.332094884252643574e+01,4.134190856555629523e+01
1.334095455844527045e+01,4.156999417391717344e+01
1.336096027436410338e+01,4.173788096772383938e+01
1.338096599028293809e+01,4.184425591401833344e+01
1.340097170620177280e+01,4.008121428004374565e+01
1.342097742212060574e+01,4.040810809354523059e+01
1.344098313803944045e+01,3.897829549653587833e+01
1.346098885395827338e+01,3.792829234567150110e+01
1.348099456987710809e+01,3.627565703569272415e+01
1.350100028579594280e+01,3.427723438524198940e+01
1.352100600171477573e+01,3.337758197479647038e+01
1.354101171763361044e+01,3.174019607155660339e+01
1.356101743355244338e+01,2.909848344839499035e+01
1.358102314947127809e+01,2.656578171892322615e+01
1.360102886539011102e+01,2.465838768049459873e+01
1.362103458130894573e+01,2.285967776784060490e+01
1.364104029722777867e+01,2.161396930149069107e+01
1.366104601314661338e+01,1.947570881125190922e+01
1.368105172906544809e+01,1.802949195571133245e+01
1.370105744498428102e+01,1.651690819227985685e+01
1.372106316090311573e+01,1.602460798122412911e+01
1.374106887682194866e+01,1.519957581507091682e+01
1.376107459274078337e+01,1.410440289311161877e+01
1.378108030865961808e+01,1.464034189697563271e+01
1.380108602457845102e+01,1.407273087300681524e+01
1.382109174049728573e+01,1.379687650329445070e+01
1.384109745641611866e+01,1.300791418418104861e+01
1.386110317233495337e+01,1.288086854908444145e+01
1.388110888825378808e+01,1.263851062642796030e+01
1.390111460417262101e+01,1.275018879383770276e+01
1.392112032009145395e+01,1.405639357067732043e+01
1.394112603601028866e+01,1.391393392928099715e+01
1.396113175192912337e+01,1.428898895826761439e+01
1.398113746784795630e+01,1.341762876190867537e+01
1.400114318376679101e+01,1.415951004751459052e+01
1.402114889968562395e+01,1.494846806670921424e+01
1.404115461560445866e+01,1.434136046138919696e+01
1.406116033152329337e+01,1.557093122925867590e+01
1.408116604744212630e+01,1.585608954934773074e+01
1.410117176336095923e+01,1.571951651513134074e+01
1.412117747927979394e+01,1.630499203637741346e+01
1.414118319519862865e+01,1.725610328633338497e+01
1.416118891111746336e+01,1.729577635954544235e+01
1.418119462703629630e+01,1.813025172958972675e+01
1.420120034295512923e+01,1.822516257345873925e+01
1.422120605887396394e+01,1.886283475808021493e+01
1.424121177479279865e+01,1.931407160963456349e+01
1.426121749071163336e+01,2.015134126088652522e+01
1.428122320663046629e+01,1.968004932755905756e+01
1.430122892254929923e+01,2.086121461758702722e+01
1.432123463846813394e+01,2.109296012424330513e+01
1.434124035438696865e+01,2.133662068327949868e+01
1.436124607030580158e+01,2.230185870209091092e+01
1.438125178622463629e+01,2.237791783259662992e+01
1.440125750214346922e+01,2.438485691326048155e+01
1.442126321806230393e+01,2.360301752640247130e+01
1.444126893398113864e+01,2.513859852878300671e+01
1.446127464989997158e+01,2.600341269676398070e+01
1.448128036581880451e+01,2.603272912063821209e+01
1.450128608173763922e+01,2.717481770808266006e+01
1.452129179765647393e+01,2.837335379024001014e+01
1.454129751357530864e+01,2.862315717551540217e+01
1.456130322949414158e+01,2.990454032317009947e+01
1.458130894541297451e+01,3.029968858670310183e+01
1.460131466133180922e+01,3.074718264998110229e+01
1.462132037725064393e+01,3.180708004692719015e+01
1.464132609316947686e+01,3.252861330540748952e+01
1.466133180908831157e+01,3.391860260565142937e+01
1.468133752500714451e+01,3.511351177119646394e+01
1.470134324092597922e+01,3.579130639295404848e+01
1.472134895684481393e+01,3.808605558735455077e+01
1.474135467276364686e+01,3.817009899764644842e+01
1.476136038868247979e+01,3.970395850038265451e+01
1.478136610460131450e+01,4.101012083380400242e+01
1.480137182052014921e+01,4.149780997285055406e+01
1.482137753643898392e+01,4.264455108588740018e+01
1.484138325235781686e+01,4.329039592666888581e+01
1.486138896827664979e+01,4.514741434093751593e+01
1.488139468419548450e+01,4.583005143496838230e+01
1.490140040011431921e+01,4.778637397326863123e+01
1.492140611603315392e+01,4.849031159023974169e+01
1.494141183195198685e+01,4.898185631712071597e+01
1.496141754787081979e+01,5.049473668431006246e+01
1.498142326378965450e+01,5.061789925974017734e+01
1.500142897970848921e+01,5.061634104099753984e+01
1.502143469562732214e+01,5.259870260533189423e+01
1.504144041154615508e+01,5.166663507962310575e+01
1.506144612746498979e+01,5.171444165177430818e+01
1.508145184338382450e+01,5.123576640830522422e+01
1.510145755930265921e+01,5.148563289859140468e+01
1.512146327522149214e+01,5.078546670726356638e+01
1.514146899114032507e+01,4.942515457406923929e+01
1.516147470705915978e+01,4.932494587703948952e+01
1.518148042297799449e+01,4.676133658339629307e+01
1.520148613889682920e+01,4.572084798714580955e+01
1.522149185481566214e+01,4.304675879759359702e+01
1.524149757073449507e+01,4.065751156132611044e+01
1.526150328665332978e+01,3.902056074291371601e+01
1.528150900257216449e+01,3.669807204632543574e+01
1.530151471849099742e+01,3.434931203028536828e+01
1.532152043440983036e+01,3.285712927647965387e+01
1.534152615032866507e+01,3.061480057171385383e+01
1.536153186624749978e+01,2.828429155584151999e+01
1.538153758216633449e+01,2.770644014206460071e+01
1.540154329808516742e+01,2.644651516321031082e+01
1.542154901400400036e+01,2.565139007171289975e+01
1.544155472992283507e+01,2.564102362409910185e+01
1.546156044584166978e+01,2.384861390332649478e+01
1.548156616176050449e+01,2.462453726027467837e+01
1.550157187767933742e+01,2.428019891015328469e+01
1.552157759359817035e+01,2.524810020431237234e+01
1.554158330951700506e+01,2.532896259293732655e+01
1.556158902543583977e+01,2.439003030965917418e+01
1.558159474135467271e+01,2.562215968522908938e+01
1.560160045727350742e+01,2.679843133893791318e+01
1.562160617319234035e+01,2.593198288929849582e+01
1.564161188911117506e+01,2.769176235732267344e+01
1.566161760503000977e+01,2.840147418110386823e+01
1.568162332094884270e+01,2.837194129654369590e+01
1.570162903686767564e+01,2.872408659755479121e+01
1.572163475278651035e+01,2.975339083976403032e+01
1.574164046870534506e+01,3.062557366096464051e+01
1.576164618462417977e+01,3.140537250662953284e+01
1.578165190054301270e+01,3.267062863483555191e+01
1.580165761646184563e+01,3.320313801316247293e+01
1.582166333238068034e+01,3.383323208887721023e+01
1.584166904829951505e+01,3.524317334545069258e+01
1.586167476421834799e+01,3.531164244752732628e+01
1.588168048013718270e+01,3.731438052942589678e+01
1.590168619605601563e+01,3.848058114887888337e+01
1.592169191197485034e+01,3.916844099971299187e+01
1.594169762789368505e+01,3.963083666005530148e+01
1.596170334381251799e+01,4.080817757893729691e+01
1.598170905973135092e+01,4.223324040554810210e+01
1.600171477565018563e+01,4.215965452614091191e+01
1.602172049156902034e+01,4.329053893547332166e+01
1.604172620748785505e+01,4.397747367123932349e+01
1.606173192340668976e+01,4.428790895139157158e+01
1.608173763932552092e+01,4.462442685540085563e+01
1.610174335524435563e+01,4.639808458522812629e+01
1.612174907116319034e+01,4.558867439500473040e+01
1.614175478708202505e+01,4.580962999111857670e+01
1.616176050300085620e+01,4.556378052119606537e+01
1.618176621891969091e+01,4.599364477606305002e+01
1.620177193483852562e+01,4.462330872099703782e+01
1.622177765075736033e+01,4.473485594537802967e+01
1.624178336667619504e+01,4.337305568700513447e+01
1.626178908259502620e+01,4.200786250895578178e+01
1.628179479851386091e+01,3.970056423860796002e+01
1.630180051443269562e+01,3.854468015587917051e+01
1.632180623035153033e+01,3.620194930455462412e+01
1.634181194627036149e+01,3.454873294694335328e+01
1.636181766218919620e+01,3.204855514422084184e+01
1.638182337810803091e+01,2.980393353883869878e+01
1.640182909402686562e+01,2.862400202151312101e+01
1.642183480994570033e+01,2.643341216685509920e+01
1.644184052586453504e+01,2.440908781287780371e+01
1.646184624178336620e+01,2.291509371631578773e+01
1.648185195770220091e+01,2.261839798140154301e+01
1.650185767362103562e+01,2.093345168826697744e+01
1.652186338953986677e+01,1.946121415352524053e+01
1.654186910545870148e+01,1.840171951523301885e+01
1.656187482137753619e+01,1.818014912551940299e+01
1.658188053729637090e+01,1.729893009052470276e+01
1.660188625321520561e+01,1.659262517118748548e+01
1.662189196913404032e+01,1.588987638961501503e+01
1.664189768505287148e+01,1.475696358173031086e+01
1.666190340097170619e+01,1.412257146060323976e+01
1.668190911689054090e+01,1.458173780251367901e+01
1.670191483280937561e+01,1.337384997928644559e+01
1.672192054872820677e+01,1.339766885288048393e+01
1.674192626464704148e+01,1.222162806156708470e+01
1.676193198056587619e+01,1.149334633205692313e+01
1.678193769648471090e+01,1.070561019807456482e+01
1.680194341240354561e+01,1.033397672411922130e+01
1.682194912832238032e+01,9.280201607174760170e+00
1.684195484424121148e+01,9.283467468438061587e+00
1.686196056016004619e+01,9.150305355584542610e+00
1.688196627607888090e+01,9.473991070691369032e+00
1.690197199199771205e+01,9.079951983379453750e+00
1.692197770791654676e+01,8.321184991978610057e+00
1.694198342383538147e+01,7.563702705802922921e+00
1.696198913975421618e+01,8.604125238691462840e+00
1.698199485567305089e+01,8.770333577861288532e+00
1.700200057159188560e+01,7.964215410271997975e+00
1.702200628751071676e+01,9.111177521460884776e+00
1.704201200342955147e+01,8.647870088070312988e+00
1.706201771934838618e+01,9.614181659061959095e+00
1.708202343526722089e+01,8.673307068910848017e+00
1.710202915118605205e+01,9.283816870954961331e+00
1.712203486710488676e+01,9.148536700688087109e+00
1.714204058302372147e+01,1.012096681311851754e+01
1.716204629894255618e+01,8.805980644372560562e+00
1.718205201486139089e+01,9.450433048611383668e+00
1.720205773078022204e+01,1.020988033255408212e+01
1.722206344669905675e+01,1.032709127988291797e+01
1.724206916261789146e+01,1.029247961351760488e+01
1.726207487853672617e+01,1.072205510552735674e+01
1.728208059445555733e+01,1.093590263368020032e+01
1.730208631037439204e+01,1.129055014162426751e+01
1.732209202629322675e+01,1.164028084090566217e+01
1.734209774221206146e+01,1.113995948330424213e+01
1.736210345813089617e+01,1.236439302766375548e+01
1.738210917404973088e+01,1.222111600300832279e+01
1.740211488996856204e+01,1.222636146897397325e+01
1.742212060588739675e+01,1.231474776457359788e+01
1.744212632180623146e+01,1.334764836567004487e+01
1.746213203772506262e+01,1.389421262314807315e+01
1.748213775364389733e+01,1.436923942167124579e+01
1.750214346956273204e+01,1.373293865124972868e+01
1.752214918548156675e+01,1.497438200019960419e+01
1.754215490140040146e+01,1.593898565433935843e+01
1.756216061731923617e+01,1.591591658428858480e+01
1.758216633323806732e+01,1.542466112247823062e+01
1.760217204915690203e+01,1.742690317358071894e+01
1.762217776507573674e+01,1.739982959921716343e+01
1.764218348099457145e+01,1.746670486689524182e+01
1.766218919691340261e+01,1.737024346595837088e+01
1.768219491283223732e+01,1.802956812519205343e+01
1.770220062875107203e+01,1.861049031997985992e+01
1.772220634466990674e+01,2.033603247706440342e+01
1.774221206058874145e+01,1.996905494692275695e+01
1.776221777650757616e+01,2.010173284579440889e+01
1.778222349242640732e+01,2.100758740232326716e+01
1.780222920834524203e+01,2.177569350530106362e+01
1.782223492426407674e+01,2.310501996548526904e+01
1.784224064018290790e+01,2.259955355846910052e+01
1.786224635610174261e+01,2.341062282151675333e+01
1.788225207202057732e+01,2.393202945112908964e+01
1.790225778793941203e+01,2.503177143417373429e+01
1.792226350385824674e+01,2.580971932874416197e+01
1.794226921977708145e+01,2.572338270824290518e+01
1.796227493569591260e+01,2.615685787058692213e+01
