angle,intensity
1.000000000000000000e+01,1.000000000000000000e+02
1.002000571591883471e+01,9.539825701665752433e+01
1.004001143183766764e+01,9.226333500770678597e+01
1.006001714775650235e+01,8.838070607217630936e+01
1.008002286367533529e+01,8.404392271178811313e+01
1.010002857959417000e+01,7.875694104644202298e+01
1.012003429551300293e+01,7.470877665325085104e+01
1.014004001143183764e+01,6.885382007502590795e+01
1.016004572735067235e+01,6.354928581515914487e+01
1.018005144326950528e+01,5.842171311941086032e+01
1.020005715918833999e+01,5.407394578464734991e+01
1.022006287510717293e+01,4.947249496928399992e+01
1.024006859102600764e+01,4.502115462309372873e+01
1.026007430694484057e+01,4.122565233534059104e+01
1.028008002286367528e+01,3.820392245685047783e+01
1.030008573878250999e+01,3.626433674434954213e+01
1.032009145470134293e+01,3.366296832022733554e+01
1.034009717062017764e+01,3.155745861536331631e+01
1.036010288653901057e+01,3.066738095925394703e+01
1.038010860245784528e+01,2.905089487387544267e+01
1.040011431837667999e+01,2.797651325738010541e+01
1.042012003429551292e+01,2.698881047285430412e+01
1.044012575021434763e+01,2.660690719384245284e+01
1.046013146613318057e+01,2.662932563811957110e+01
1.048013718205201528e+01,2.619910796054850977e+01
1.050014289797084821e+01,2.623945158926242627e+01
1.052014861388968292e+01,2.583793004883915856e+01
1.054015432980851585e+01,2.530112247338836085e+01
1.056016004572735056e+01,2.541645919347988070e+01
1.058016576164618527e+01,2.504656820681833551e+01
1.060017147756501821e+01,2.489131367153238017e+01
1.062017719348385292e+01,2.513526803520747421e+01
1.064018290940268585e+01,2.602817344148173717e+01
1.066018862532152056e+01,2.595357864624925170e+01
1.068019434124035527e+01,2.653765804853047428e+01
1.070020005715918820e+01,2.636015616575363651e+01
1.072020577307802292e+01,2.607429359451336381e+01
1.074021148899685585e+01,2.633609046970197909e+01
1.076021720491569056e+01,2.735215391751555813e+01
1.078022292083452349e+01,2.731743367447159088e+01
1.080022863675335820e+01,2.699080128165354608e+01
1.082023435267219291e+01,2.841003394015174877e+01
1.084024006859102585e+01,2.897105209709068774e+01
1.086024578450986056e+01,2.971598808568615624e+01
1.088025150042869349e+01,2.876163409341840094e+01
1.090025721634752820e+01,3.045128134702561340e+01
1.092026293226636113e+01,3.020458206758823394e+01
1.094026864818519584e+01,3.146187084726195593e+01
1.096027436410403055e+01,3.122127826732860356e+01
1.098028008002286349e+01,3.217275287023552721e+01
1.100028579594169820e+01,3.212441867680964691e+01
1.102029151186053113e+01,3.354592048581662311e+01
1.104029722777936584e+01,3.391035467889790311e+01
1.106030294369819877e+01,3.396293083043176608e+01
1.108030865961703348e+01,3.509215047596824633e+01
1.110031437553586819e+01,3.558807080114911514e+01
1.112032009145470113e+01,3.650907891752531498e+01
1.114032580737353584e+01,3.683190057330553913e+01
1.116033152329236877e+01,3.821719730178472219e+01
1.118033723921120348e+01,3.795310121368970613e+01
1.120034295513003642e+01,3.884925805674774324e+01
1.122034867104887113e+01,3.941574504476440666e+01
1.124035438696770584e+01,4.012431397443992864e+01
1.126036010288653877e+01,4.089321246800467691e+01
1.128036581880537348e+01,4.155913732282270701e+01
1.130037153472420641e+01,4.220687718633662655e+01
1.132037725064304112e+01,4.293334612202508538e+01
1.134038296656187583e+01,4.325332458857802465e+01
1.136038868248070877e+01,4.386048609599532000e+01
1.138039439839954348e+01,4.385012908538416099e+01
1.140040011431837641e+01,4.509873743001018909e+01
1.142040583023721112e+01,4.466595678893962429e+01
1.144041154615604405e+01,4.490507583799146829e+01
1.146041726207487876e+01,4.517202495988104261e+01
1.148042297799371170e+01,4.442885404217133782e+01
1.150042869391254641e+01,4.432989803775080162e+01
1.152043440983138112e+01,4.519506781482137114e+01
1.154044012575021405e+01,4.421863149721941255e+01
1.156044584166904876e+01,4.399712522183756391e+01
1.158045155758788169e+01,4.285703383638359298e+01
1.160045727350671640e+01,4.165479699635582023e+01
1.162046298942555111e+01,4.153756361971106514e+01
1.164046870534438405e+01,3.970192144294213676e+01
1.166047442126321876e+01,3.762005251439483544e+01
1.168048013718205169e+01,3.602615867856133036e+01
1.170048585310088640e+01,3.403731125823783543e+01
1.172049156901971934e+01,3.266496066753246197e+01
1.174049728493855405e+01,2.995850865653181927e+01
1.176050300085738698e+01,2.815362991105662616e+01
1.178050871677622169e+01,2.512797155131183757e+01
1.180051443269505640e+01,2.288825057748098146e+01
1.182052014861388933e+01,2.110017260380063320e+01
1.184052586453272404e+01,1.938051699372754655e+01
1.186053158045155698e+01,1.677510555203871334e+01
1.188053729637039169e+01,1.469186333013756496e+01
1.190054301228922640e+01,1.452707756806043093e+01
1.192054872820805933e+01,1.219007374309267533e+01
1.194055444412689404e+01,1.072460852622570293e+01
1.196056016004572697e+01,1.015424599876078027e+01
1.198056587596456168e+01,9.671233226047402098e+00
1.200057159188339639e+01,8.517272876011093174e+00
1.202057730780222933e+01,7.500223903022009253e+00
1.204058302372106226e+01,7.183110574692648242e+00
1.206058873963989697e+01,6.397989910122166890e+00
1.208059445555873168e+01,6.502691544147202407e+00
1.210060017147756461e+01,6.559555989852967173e+00
1.212060588739639932e+01,5.918646184500270024e+00
1.214061160331523226e+01,5.081986890168495030e+00
1.216061731923406697e+01,5.573710993004450387e+00
1.218062303515290168e+01,5.014163215870970802e+00
1.220062875107173461e+01,5.827497563691682814e+00
1.222063446699056932e+01,4.840112350669776298e+00
1.224064018290940226e+01,4.754378895921417048e+00
1.226064589882823697e+01,5.081311003745693000e+00
1.228065161474707168e+01,5.005644436146857501e+00
1.230065733066590461e+01,5.012463764811065481e+00
1.232066304658473754e+01,4.027599225770805091e+00
1.234066876250357225e+01,4.964238211139209156e+00
1.236067447842240696e+01,4.989380707781922553e+00
1.238068019434123990e+01,4.309196978526835586e+00
1.240068591026007461e+01,4.324775989040996471e+00
1.242069162617890754e+01,3.925726655539686583e+00
1.244069734209774225e+01,4.305683946434067266e+00
1.246070305801657696e+01,4.156610215846629153e+00
1.248070877393540989e+01,4.381044813188706755e+00
1.250071448985424460e+01,3.799916768431423897e+00
1.252072020577307754e+01,3.866175484568100895e+00
1.254072592169191225e+01,4.311048687574337457e+00
1.256073163761074696e+01,3.826314178975017022e+00
1.258073735352957989e+01,4.310783313218628621e+00
1.260074306944841460e+01,4.207395339652244992e+00
1.262074878536724754e+01,4.726047453257799624e+00
1.264075450128608225e+01,4.025530634502002769e+00
1.266076021720491518e+01,4.263140265129036877e+00
1.268076593312374989e+01,4.377301295441740514e+00
1.270077164904258282e+01,3.549132555003967404e+00
1.272077736496141753e+01,3.767970935651403064e+00
1.274078308088025224e+01,3.501120725471246420e+00
1.276078879679908518e+01,4.485988332218546759e+00
1.278079451271791989e+01,4.339623085379869849e+00
1.280080022863675282e+01,3.485023985114741762e+00
1.282080594455558753e+01,4.416063922347952087e+00
1.284081166047442224e+01,4.239394363320997172e+00
1.286081737639325517e+01,4.084836915905772692e+00
1.288082309231208988e+01,3.971131444431462931e+00
1.290082880823092282e+01,4.084450211937722841e+00
1.292083452414975753e+01,3.517094021519651559e+00
1.294084024006859224e+01,3.153918408951545516e+00
1.296084595598742517e+01,3.616393529353127523e+00
1.298085167190625810e+01,3.315139813539251357e+00
1.300085738782509281e+01,3.937008262496711097e+00
1.302086310374392752e+01,2.951234015719860881e+00
1.304086881966276046e+01,3.377700712249994019e+00
1.306087453558159517e+01,3.656661457827580897e+00
1.308088025150042810e+01,3.154136271632694388e+00
1.310088596741926281e+01,4.576289592504039661e+00
1.312089168333809752e+01,4.389541304953732848e+00
1.314089739925693046e+01,3.894021852299229813e+00
1.316090311517576517e+01,4.077395208582132113e+00
1.318090883109459810e+01,3.278499249596441789e+00
1.320091454701343281e+01,3.244698438810589280e+00
1.322092026293226752e+01,3.474817166165627302e+00
1.324092597885110045e+01,4.076336349906000578e+00
1.326093169476993339e+01,4.043592787696383972e+00
1.328093741068876810e+01,3.973690306854455123e+00
1.330094312660760281e+01,3.770465756427983983e+00
1.332094884252643574e+01,3.211824966756948729e+00
1.334095455844527045e+01,3.720349850572743922e+00
1.336096027436410338e+01,3.516606689951099707e+00
1.338096599028293809e+01,4.000156264196245814e+00
1.340097170620177280e+01,3.184931125278557484e+00
1.342097742212060574e+01,4.410543185016666534e+00
1.344098313803944045e+01,4.416198969805776642e+00
1.346098885395827338e+01,4.067303940125959194e+00
1.348099456987710809e+01,3.666261398418878770e+00
1.350100028579594280e+01,3.304818460672533043e+00
1.352100600171477573e+01,4.097677368539935472e+00
1.354101171763361044e+01,3.619018143785043051e+00
1.356101743355244338e+01,4.330710471965302233e+00
1.358102314947127809e+01,3.783712945743565648e+00
1.360102886539011102e+01,4.249614174655590659e+00
1.362103458130894573e+01,3.307953016840221139e+00
1.364104029722777867e+01,4.188597642570565327e+00
1.366104601314661338e+01,3.920194116595345335e+00
1.368105172906544809e+01,3.614059189090532698e+00
1.370105744498428102e+01,3.499402593248063464e+00
1.372106316090311573e+01,3.991924000738832579e+00
1.374106887682194866e+01,3.270714245746105142e+00
1.376107459274078337e+01,3.902811283985933244e+00
1.378108030865961808e+01,3.084433713470841276e+00
1.380108602457845102e+01,3.750758291504354247e+00
1.382109174049728573e+01,4.343501853717121719e+00
1.384109745641611866e+01,3.163525430644253511e+00
1.386110317233495337e+01,3.991200260464837335e+00
1.388110888825378808e+01,3.091295503218124630e+00
1.390111460417262101e+01,4.399395102751016751e+00
1.392112032009145395e+01,3.752053156672746859e+00
1.394112603601028866e+01,3.432814808759212966e+00
1.396113175192912337e+01,3.241024469936997221e+00
1.398113746784795630e+01,3.483503219732279721e+00
1.400114318376679101e+01,3.351434739605918534e+00
1.402114889968562395e+01,3.937669500600070371e+00
1.404115461560445866e+01,3.379565668207197504e+00
1.406116033152329337e+01,4.083037187318883987e+00
1.408116604744212630e+01,2.823186448718017605e+00
1.410117176336095923e+01,4.148625185977983243e+00
1.412117747927979394e+01,4.045769892529122558e+00
1.414118319519862865e+01,3.268177022923635100e+00
1.416118891111746336e+01,4.069916908100474906e+00
1.418119462703629630e+01,4.323529938999207012e+00
1.420120034295512923e+01,3.694038012079801980e+00
1.422120605887396394e+01,3.352345208294000400e+00
1.424121177479279865e+01,4.281354770692185951e+00
1.426121749071163336e+01,4.090904043002196566e+00
1.428122320663046629e+01,3.793020150065570917e+00
1.430122892254929923e+01,4.695132226507638507e+00
1.432123463846813394e+01,2.948702901696142131e+00
1.434124035438696865e+01,4.196188218590370056e+00
1.436124607030580158e+01,4.550459015535821550e+00
1.438125178622463629e+01,3.907798439300736781e+00
1.440125750214346922e+01,3.690864190145315860e+00
1.442126321806230393e+01,3.240132205470112492e+00
1.444126893398113864e+01,3.770238560315251952e+00
1.446127464989997158e+01,3.603568936944809842e+00
1.448128036581880451e+01,3.976876516857623223e+00
1.450128608173763922e+01,4.626702336811328031e+00
1.452129179765647393e+01,4.413658204106074123e+00
1.454129751357530864e+01,3.912001889685047473e+00
1.456130322949414158e+01,3.521781465768886843e+00
1.458130894541297451e+01,4.467531351050830324e+00
1.460131466133180922e+01,4.229182182475659246e+00
1.462132037725064393e+01,5.221682572307239312e+00
1.464132609316947686e+01,3.947195895527340070e+00
1.466133180908831157e+01,4.269241136225536692e+00
1.468133752500714451e+01,4.682407906296020883e+00
1.470134324092597922e+01,4.957559516912685815e+00
1.472134895684481393e+01,5.009123805547487152e+00
1.474135467276364686e+01,4.988598943096257621e+00
1.476136038868247979e+01,5.366878735902245623e+00
1.478136610460131450e+01,5.492858853475244274e+00
1.480137182052014921e+01,4.875975171864702418e+00
1.482137753643898392e+01,4.780120452294996269e+00
1.484138325235781686e+01,4.819097504515656993e+00
1.486138896827664979e+01,5.524701143284895366e+00
1.488139468419548450e+01,4.680790529277112810e+00
1.490140040011431921e+01,5.254473269444106975e+00
1.492140611603315392e+01,5.149313802815672858e+00
1.494141183195198685e+01,5.442962069806677405e+00
1.496141754787081979e+01,5.473238646187803980e+00
1.498142326378965450e+01,6.063483821732532419e+00
1.500142897970848921e+01,5.417386264998580003e+00
1.502143469562732214e+01,5.647434362361155813e+00
1.504144041154615508e+01,6.733819172453411994e+00
1.506144612746498979e+01,7.307519415455574929e+00
1.508145184338382450e+01,6.875581757605114142e+00
1.510145755930265921e+01,6.274640837535645055e+00
1.512146327522149214e+01,6.864142666979958562e+00
1.514146899114032507e+01,6.529601152137338715e+00
1.516147470705915978e+01,7.303848592778406257e+00
1.518148042297799449e+01,7.044321786831561738e+00
1.520148613889682920e+01,8.262280728737135149e+00
1.522149185481566214e+01,7.680394078340984976e+00
1.524149757073449507e+01,7.662217817742097203e+00
1.526150328665332978e+01,8.793109663266800879e+00
1.528150900257216449e+01,8.104381707607501539e+00
1.530151471849099742e+01,8.269099429856055394e+00
1.532152043440983036e+01,9.217606577615534036e+00
1.534152615032866507e+01,9.114053085626142803e+00
1.536153186624749978e+01,9.602024859092876952e+00
1.538153758216633449e+01,9.551317259353265143e+00
1.540154329808516742e+01,9.332570071395112521e+00
1.542154901400400036e+01,1.003841298952494654e+01
1.544155472992283507e+01,1.035218758627900826e+01
1.546156044584166978e+01,9.933516635725917254e+00
1.548156616176050449e+01,1.138106710907053198e+01
1.550157187767933742e+01,1.154442377966362088e+01
1.552157759359817035e+01,1.068111183544159459e+01
1.554158330951700506e+01,1.176540806251585281e+01
1.556158902543583977e+01,1.183995184049999594e+01
1.558159474135467271e+01,1.219853227440642485e+01
1.560160045727350742e+01,1.204395957869410694e+01
1.562160617319234035e+01,1.363469986692565072e+01
1.564161188911117506e+01,1.348533257979460309e+01
1.566161760503000977e+01,1.353337466769315967e+01
1.568162332094884270e+01,1.361728496042059788e+01
1.570162903686767564e+01,1.413725061462559118e+01
1.572163475278651035e+01,1.504440338926266563e+01
1.574164046870534506e+01,1.486218205033777195e+01
1.576164618462417977e+01,1.575850722670141124e+01
1.578165190054301270e+01,1.568966232272207506e+01
1.580165761646184563e+01,1.670132721008959464e+01
1.582166333238068034e+01,1.641051919521993341e+01
1.584166904829951505e+01,1.715674375807314078e+01
1.586167476421834799e+01,1.812764037290556729e+01
1.588168048013718270e+01,1.881790239845059176e+01
1.590168619605601563e+01,1.913775128083754140e+01
1.592169191197485034e+01,1.949382779448205838e+01
1.594169762789368505e+01,2.000979621320060176e+01
1.596170334381251799e+01,1.981125989673505217e+01
1.598170905973135092e+01,2.060424234235369312e+01
1.600171477565018563e+01,2.167215779901060912e+01
1.602172049156902034e+01,2.253930314994038753e+01
1.604172620748785505e+01,2.240983935569203567e+01
1.606173192340668976e+01,2.334658426268709519e+01
1.608173763932552092e+01,2.343442441416459943e+01
1.610174335524435563e+01,2.465265453983391097e+01
1.612174907116319034e+01,2.541357335551138519e+01
1.614175478708202505e+01,2.582720214528082892e+01
1.616176050300085620e+01,2.545947116410388489e+01
1.618176621891969091e+01,2.589452618300452968e+01
1.620177193483852562e+01,2.757885484548458876e+01
1.622177765075736033e+01,2.673358980524334072e+01
1.624178336667619504e+01,2.850996264559901050e+01
1.626178908259502620e+01,2.843316933012003744e+01
1.628179479851386091e+01,2.783632150873198441e+01
1.630180051443269562e+01,2.888448221569320040e+01
1.632180623035153033e+01,2.918105403246825347e+01
1.634181194627036149e+01,2.833062383723149935e+01
1.636181766218919620e+01,2.799192540745571733e+01
1.638182337810803091e+01,2.736769500611329065e+01
1.640182909402686562e+01,2.632916003721345533e+01
1.642183480994570033e+01,2.660037048667182802e+01
1.644184052586453504e+01,2.464531378037382936e+01
1.646184624178336620e+01,2.396408465201859173e+01
1.648185195770220091e+01,2.316851878062272263e+01
1.650185767362103562e+01,2.250285367300659800e+01
1.652186338953986677e+01,2.169900809318583867e+01
1.654186910545870148e+01,1.979383574050121553e+01
1.656187482137753619e+01,1.807155090861958868e+01
1.658188053729637090e+01,1.727632679725617493e+01
1.660188625321520561e+01,1.566945535257694289e+01
1.662189196913404032e+01,1.504520127689016462e+01
1.664189768505287148e+01,1.384745661363919567e+01
1.666190340097170619e+01,1.291350480308794602e+01
1.668190911689054090e+01,1.148426659475841127e+01
1.670191483280937561e+01,1.136612140380193026e+01
1.672192054872820677e+01,1.073365105454941215e+01
1.674192626464704148e+01,1.029190030236043540e+01
1.676193198056587619e+01,1.007634936172233608e+01
1.678193769648471090e+01,8.152464487206263044e+00
1.680194341240354561e+01,8.022836422028364112e+00
1.682194912832238032e+01,7.529998111927548976e+00
1.684195484424121148e+01,6.684341163986404766e+00
1.686196056016004619e+01,6.393305925052240823e+00
1.688196627607888090e+01,5.951149559668030165e+00
1.690197199199771205e+01,6.237369860629392804e+00
1.692197770791654676e+01,5.645752938544709387e+00
1.694198342383538147e+01,5.729027264115957863e+00
1.696198913975421618e+01,4.682164748964279255e+00
1.698199485567305089e+01,4.669755767676818436e+00
1.700200057159188560e+01,5.467399485073121568e+00
1.702200628751071676e+01,4.933529696059804515e+00
1.704201200342955147e+01,4.229743209208975507e+00
1.706201771934838618e+01,4.012570549558139632e+00
1.708202343526722089e+01,4.628425402510233155e+00
1.710202915118605205e+01,3.654737377217053051e+00
1.712203486710488676e+01,4.278293990974809446e+00
1.714204058302372147e+01,4.419255592685321865e+00
1.716204629894255618e+01,3.756289856672668570e+00
1.718205201486139089e+01,4.223952181625671543e+00
1.720205773078022204e+01,3.907664612895728418e+00
1.722206344669905675e+01,4.867792094306286899e+00
1.724206916261789146e+01,4.381406597180761864e+00
1.726207487853672617e+01,4.908895947308024255e+00
1.728208059445555733e+01,4.746097647014814847e+00
1.730208631037439204e+01,4.677788818644885716e+00
1.732209202629322675e+01,3.381539158853594351e+00
1.734209774221206146e+01,4.352513097455208424e+00
1.736210345813089617e+01,4.211258563974956459e+00
1.738210917404973088e+01,4.504283606523554084e+00
1.740211488996856204e+01,4.591563073381376370e+00
1.742212060588739675e+01,4.277283211904349791e+00
1.744212632180623146e+01,4.187924960906479477e+00
1.746213203772506262e+01,3.920760160898030033e+00
1.748213775364389733e+01,3.425323188819568099e+00
1.750214346956273204e+01,4.178095819455282189e+00
1.752214918548156675e+01,4.108928748651135443e+00
1.754215490140040146e+01,3.967424184012721788e+00
1.756216061731923617e+01,3.642603748384487083e+00
1.758216633323806732e+01,4.062778632807102497e+00
1.760217204915690203e+01,3.958024760400771669e+00
1.762217776507573674e+01,4.532196763616948232e+00
1.764218348099457145e+01,4.337064026040687637e+00
1.766218919691340261e+01,3.836743910105626654e+00
1.768219491283223732e+01,3.965892255795331334e+00
1.770220062875107203e+01,5.169077547021945662e+00
1.772220634466990674e+01,5.503453053334914635e+00
1.774221206058874145e+01,4.380793777376920772e+00
1.776221777650757616e+01,5.563077947736567275e+00
1.778222349242640732e+01,5.544408386148740320e+00
1.780222920834524203e+01,4.437249634726653014e+00
1.782223492426407674e+01,5.384221838690244510e+00
1.784224064018290790e+01,5.024907739576365273e+00
1.786224635610174261e+01,4.977186857688984389e+00
1.788225207202057732e+01,5.439873155533134330e+00
1.790225778793941203e+01,5.498657564895542471e+00
1.792226350385824674e+01,5.695345758306633144e+00
1.794226921977708145e+01,6.336954720618826364e+00
1.796227493569591260e+01,5.507443869376958290e+00
