angle,intensity
1.000000000000000000e+01,5.494795360522788030e+01
1.002000571591883471e+01,5.524340228467625025e+01
1.004001143183766764e+01,5.549874801530270929e+01
1.006001714775650235e+01,5.726327112505934736e+01
1.008002286367533529e+01,5.845272585087556649e+01
1.010002857959417000e+01,5.980467836805248538e+01
1.012003429551300293e+01,6.073297417176871704e+01
1.014004001143183764e+01,6.221674059550585412e+01
1.016004572735067235e+01,6.262965418805565321e+01
1.018005144326950528e+01,6.379607462850358957e+01
1.020005715918833999e+01,6.470890831278865107e+01
1.022006287510717293e+01,6.597191207708526406e+01
1.024006859102600764e+01,6.714607418148386841e+01
1.026007430694484057e+01,6.826865321871810011e+01
1.028008002286367528e+01,6.891971956211831696e+01
1.030008573878250999e+01,7.096513183281992099e+01
1.032009145470134293e+01,7.214280049484118251e+01
1.034009717062017764e+01,7.355664903114561071e+01
1.036010288653901057e+01,7.456060608770376064e+01
1.038010860245784528e+01,7.570644721772279695e+01
1.040011431837667999e+01,7.649381660077757772e+01
1.042012003429551292e+01,7.699717121496459526e+01
1.044012575021434763e+01,7.795515719531088905e+01
1.046013146613318057e+01,7.935904067489302349e+01
1.048013718205201528e+01,8.033615158160475289e+01
1.050014289797084821e+01,8.151442369362098361e+01
1.052014861388968292e+01,8.178808566554313586e+01
1.054015432980851585e+01,8.205154910616036545e+01
1.056016004572735056e+01,8.269967493568168493e+01
1.058016576164618527e+01,8.285618351066622722e+01
1.060017147756501821e+01,8.258331525514262239e+01
1.062017719348385292e+01,8.322121896388172502e+01
1.064018290940268585e+01,8.262678546934439794e+01
1.066018862532152056e+01,8.229098991188314471e+01
1.068019434124035527e+01,8.125615740230723816e+01
1.070020005715918820e+01,8.081502205278465567e+01
1.072020577307802292e+01,7.949170806430174707e+01
1.074021148899685585e+01,7.812078542516537993e+01
1.076021720491569056e+01,7.607898413701886398e+01
1.078022292083452349e+01,7.419808509375437211e+01
1.080022863675335820e+01,7.115299068218655520e+01
1.082023435267219291e+01,6.788859711331343760e+01
1.084024006859102585e+01,6.499160481156637559e+01
1.086024578450986056e+01,6.131432658413824299e+01
1.088025150042869349e+01,5.656215995299993438e+01
1.090025721634752820e+01,5.172795536335075894e+01
1.092026293226636113e+01,4.850282664969978441e+01
1.094026864818519584e+01,4.346092339986725506e+01
1.096027436410403055e+01,4.038390589062134239e+01
1.098028008002286349e+01,3.591503449494038591e+01
1.100028579594169820e+01,3.152466606840771846e+01
1.102029151186053113e+01,2.822739874813186844e+01
1.104029722777936584e+01,2.538498910280336673e+01
1.106030294369819877e+01,2.324803319716171046e+01
1.108030865961703348e+01,1.922314711675743837e+01
1.110031437553586819e+01,1.768157442328168827e+01
1.112032009145470113e+01,1.599973112535374931e+01
1.114032580737353584e+01,1.480606929001741534e+01
1.116033152329236877e+01,1.364565765516460871e+01
1.118033723921120348e+01,1.247523183609649067e+01
1.120034295513003642e+01,1.120755522894199707e+01
1.122034867104887113e+01,1.124661579687398927e+01
1.124035438696770584e+01,1.053719988355909010e+01
1.126036010288653877e+01,1.068166779956444756e+01
1.128036581880537348e+01,1.033765969408624485e+01
1.130037153472420641e+01,9.779047056120241166e+00
1.132037725064304112e+01,8.521159758056525035e+00
1.134038296656187583e+01,9.876842098100331313e+00
1.136038868248070877e+01,8.385701430960036618e+00
1.138039439839954348e+01,9.478556514358384533e+00
1.140040011431837641e+01,9.159515782352730895e+00
1.142040583023721112e+01,8.317222826921131684e+00
1.144041154615604405e+01,8.181887743894286302e+00
1.146041726207487876e+01,8.407760133467105490e+00
1.148042297799371170e+01,7.753862336930496646e+00
1.150042869391254641e+01,7.531898733682439229e+00
1.152043440983138112e+01,7.945284105415175269e+00
1.154044012575021405e+01,7.526467372231651964e+00
1.156044584166904876e+01,8.698787075445151729e+00
1.158045155758788169e+01,8.496329156262028448e+00
1.160045727350671640e+01,8.002328829174812697e+00
1.162046298942555111e+01,7.316999799551472172e+00
1.164046870534438405e+01,7.823813216419320149e+00
1.166047442126321876e+01,8.325901917176393496e+00
1.168048013718205169e+01,7.057728031181534689e+00
1.170048585310088640e+01,7.630852954988953663e+00
1.172049156901971934e+01,8.151967026581143472e+00
1.174049728493855405e+01,8.303702959046908916e+00
1.176050300085738698e+01,7.813452199383294605e+00
1.178050871677622169e+01,6.893099439764640124e+00
1.180051443269505640e+01,7.431222250501265059e+00
1.182052014861388933e+01,6.987082448897481868e+00
1.184052586453272404e+01,7.914182595959010413e+00
1.186053158045155698e+01,7.466850849998881046e+00
1.188053729637039169e+01,7.420890890464982625e+00
1.190054301228922640e+01,7.189951550240520461e+00
1.192054872820805933e+01,7.910626641142000537e+00
1.194055444412689404e+01,7.709370429830382676e+00
1.196056016004572697e+01,6.535976057130319816e+00
1.198056587596456168e+01,6.878483191757428727e+00
1.200057159188339639e+01,6.109941970971059177e+00
1.202057730780222933e+01,5.846840906860201414e+00
1.204058302372106226e+01,6.253581871529928726e+00
1.206058873963989697e+01,6.177003189910198699e+00
1.208059445555873168e+01,6.018236897512478478e+00
1.210060017147756461e+01,6.187148048294382363e+00
1.212060588739639932e+01,6.325448105940433052e+00
1.214061160331523226e+01,5.326686882075836849e+00
1.216061731923406697e+01,4.811738675961530376e+00
1.218062303515290168e+01,5.144801508623814357e+00
1.220062875107173461e+01,5.756681051542434702e+00
1.222063446699056932e+01,5.038510976371691541e+00
1.224064018290940226e+01,4.993795051961361864e+00
1.226064589882823697e+01,5.159472981854550611e+00
1.228065161474707168e+01,4.402973897890712252e+00
1.230065733066590461e+01,4.665476885896348236e+00
1.232066304658473754e+01,4.635518274908148939e+00
1.234066876250357225e+01,4.905988560395985409e+00
1.236067447842240696e+01,4.769687031008335687e+00
1.238068019434123990e+01,4.157855390173508248e+00
1.240068591026007461e+01,3.854630141902958940e+00
1.242069162617890754e+01,4.486367556470206353e+00
1.244069734209774225e+01,3.851003486653468144e+00
1.246070305801657696e+01,4.531052100198259325e+00
1.248070877393540989e+01,4.662998469211109054e+00
1.250071448985424460e+01,4.066588613894930759e+00
1.252072020577307754e+01,4.250144369005416145e+00
1.254072592169191225e+01,3.839797744386792111e+00
1.256073163761074696e+01,3.833593016781944307e+00
1.258073735352957989e+01,4.874400399844883935e+00
1.260074306944841460e+01,4.855515874214567873e+00
1.262074878536724754e+01,4.274248999615850586e+00
1.264075450128608225e+01,4.995787060957002979e+00
1.266076021720491518e+01,3.868718050207316850e+00
1.268076593312374989e+01,4.399406979265409134e+00
1.270077164904258282e+01,4.117615471500839064e+00
1.272077736496141753e+01,4.095002924356264451e+00
1.274078308088025224e+01,4.758304666525525306e+00
1.276078879679908518e+01,4.109031671444725475e+00
1.278079451271791989e+01,4.670786010874156347e+00
1.280080022863675282e+01,4.079765625483760871e+00
1.282080594455558753e+01,3.422075574403834253e+00
1.284081166047442224e+01,4.839429597367051805e+00
1.286081737639325517e+01,3.986690563764669903e+00
1.288082309231208988e+01,4.834896469950183295e+00
1.290082880823092282e+01,4.950704841060039385e+00
1.292083452414975753e+01,4.256464344356779783e+00
1.294084024006859224e+01,5.002866619653563163e+00
1.296084595598742517e+01,4.120581371842112262e+00
1.298085167190625810e+01,4.723188625384879380e+00
1.300085738782509281e+01,3.743104237259029521e+00
1.302086310374392752e+01,4.367995773914665314e+00
1.304086881966276046e+01,3.786556657664760905e+00
1.306087453558159517e+01,4.650445826224259172e+00
1.308088025150042810e+01,4.649543845116027363e+00
1.310088596741926281e+01,3.912919076451212952e+00
1.312089168333809752e+01,4.890455145413456606e+00
1.314089739925693046e+01,4.470666452622742426e+00
1.316090311517576517e+01,5.378503620024428500e+00
1.318090883109459810e+01,4.384543833032790161e+00
1.320091454701343281e+01,4.265093403024534879e+00
1.322092026293226752e+01,4.911163525311094347e+00
1.324092597885110045e+01,5.583530235922776086e+00
1.326093169476993339e+01,4.838533921767067980e+00
1.328093741068876810e+01,5.617806060334592289e+00
1.330094312660760281e+01,5.182850910067696049e+00
1.332094884252643574e+01,5.079390714254120809e+00
1.334095455844527045e+01,5.445816189803366569e+00
1.336096027436410338e+01,5.570850015168460345e+00
1.338096599028293809e+01,5.741403948740792629e+00
1.340097170620177280e+01,5.821467894978628266e+00
1.342097742212060574e+01,6.194491199417337057e+00
1.344098313803944045e+01,6.534728297421999343e+00
1.346098885395827338e+01,5.733134863934965963e+00
1.348099456987710809e+01,6.872370280671050935e+00
1.350100028579594280e+01,5.898828924961464715e+00
1.352100600171477573e+01,6.713357564930642951e+00
1.354101171763361044e+01,6.849448260700674140e+00
1.356101743355244338e+01,7.257827124350333392e+00
1.358102314947127809e+01,7.244981867792004593e+00
1.360102886539011102e+01,7.518178648898999228e+00
1.362103458130894573e+01,7.305266323639812320e+00
1.364104029722777867e+01,8.398026781900616911e+00
1.366104601314661338e+01,7.572815278956278817e+00
1.368105172906544809e+01,8.832216341587376007e+00
1.370105744498428102e+01,8.065778171787028938e+00
1.372106316090311573e+01,8.325489359435948700e+00
1.374106887682194866e+01,8.457730629069203587e+00
1.376107459274078337e+01,9.624407101191778224e+00
1.378108030865961808e+01,9.474466020579324521e+00
1.380108602457845102e+01,9.571845176403034117e+00
1.382109174049728573e+01,9.525673977664039782e+00
1.384109745641611866e+01,9.751484682432881357e+00
1.386110317233495337e+01,1.023468482418322978e+01
1.388110888825378808e+01,1.030649379297818768e+01
1.390111460417262101e+01,1.084578170812664411e+01
1.392112032009145395e+01,1.179600597101204329e+01
1.394112603601028866e+01,1.218132776943177120e+01
1.396113175192912337e+01,1.120130110788550581e+01
1.398113746784795630e+01,1.218579651413595499e+01
1.400114318376679101e+01,1.328830395936669007e+01
1.402114889968562395e+01,1.296498820631502014e+01
1.404115461560445866e+01,1.333013990322778142e+01
1.406116033152329337e+01,1.399532049530495215e+01
1.408116604744212630e+01,1.387097394402649186e+01
1.410117176336095923e+01,1.516227866682687875e+01
1.412117747927979394e+01,1.465941540716556446e+01
1.414118319519862865e+01,1.509927091170798263e+01
1.416118891111746336e+01,1.589019447720573730e+01
1.418119462703629630e+01,1.578249588950859739e+01
1.420120034295512923e+01,1.752067240288432970e+01
1.422120605887396394e+01,1.702167083700421202e+01
1.424121177479279865e+01,1.749914640117571807e+01
1.426121749071163336e+01,1.851712398447256192e+01
1.428122320663046629e+01,1.838933004868941623e+01
1.430122892254929923e+01,1.951463145538129851e+01
1.432123463846813394e+01,1.937943390802222154e+01
1.434124035438696865e+01,1.958437840304983979e+01
1.436124607030580158e+01,2.045593737670912304e+01
1.438125178622463629e+01,2.101704592225923562e+01
1.440125750214346922e+01,2.151745524978777979e+01
1.442126321806230393e+01,2.190357796474101093e+01
1.444126893398113864e+01,2.236875174062840799e+01
1.446127464989997158e+01,2.382781486395966652e+01
1.448128036581880451e+01,2.456917748037969673e+01
1.450128608173763922e+01,2.530157576164783251e+01
1.452129179765647393e+01,2.617288435371573740e+01
1.454129751357530864e+01,2.577514031333008759e+01
1.456130322949414158e+01,2.715616140327276185e+01
1.458130894541297451e+01,2.778554659242094260e+01
1.460131466133180922e+01,2.889866298992756555e+01
1.462132037725064393e+01,2.951832630179289296e+01
1.464132609316947686e+01,3.031908810284998523e+01
1.466133180908831157e+01,3.138410023827691120e+01
1.468133752500714451e+01,3.161243138623281723e+01
1.470134324092597922e+01,3.293125444686663172e+01
1.472134895684481393e+01,3.408772676436058902e+01
1.474135467276364686e+01,3.492465274732200697e+01
1.476136038868247979e+01,3.514165946794932438e+01
1.478136610460131450e+01,3.662287108077826758e+01
1.480137182052014921e+01,3.734658678935022635e+01
1.482137753643898392e+01,3.884650208301093954e+01
1.484138325235781686e+01,3.927470895991058342e+01
1.486138896827664979e+01,4.035770789526979740e+01
1.488139468419548450e+01,4.216066401034500188e+01
1.490140040011431921e+01,4.266075316757878966e+01
1.492140611603315392e+01,4.399540215213447425e+01
1.494141183195198685e+01,4.498315194483156176e+01
1.496141754787081979e+01,4.594918489093009839e+01
1.498142326378965450e+01,4.702127243300608939e+01
1.500142897970848921e+01,4.752698940695341889e+01
1.502143469562732214e+01,4.934512564229363818e+01
1.504144041154615508e+01,5.025600846542549505e+01
1.506144612746498979e+01,5.161858364377006581e+01
1.508145184338382450e+01,5.247405854449139184e+01
1.510145755930265921e+01,5.329168344596261164e+01
1.512146327522149214e+01,5.325733537039195653e+01
1.514146899114032507e+01,5.489138422392975514e+01
1.516147470705915978e+01,5.558733216248893427e+01
1.518148042297799449e+01,5.581835593966509634e+01
1.520148613889682920e+01,5.563366742791546926e+01
1.522149185481566214e+01,5.634747994669170623e+01
1.524149757073449507e+01,5.578619394512818275e+01
1.526150328665332978e+01,5.511400597245437893e+01
1.528150900257216449e+01,5.451516708871180583e+01
1.530151471849099742e+01,5.290558822340853595e+01
1.532152043440983036e+01,5.134931690228309265e+01
1.534152615032866507e+01,5.110361556098585822e+01
1.536153186624749978e+01,4.843619983143861418e+01
1.538153758216633449e+01,4.586932918129654979e+01
1.540154329808516742e+01,4.304955707640277751e+01
1.542154901400400036e+01,4.131524120397826039e+01
1.544155472992283507e+01,3.761980490553769130e+01
1.546156044584166978e+01,3.524110490918506144e+01
1.548156616176050449e+01,3.243100379432092950e+01
1.550157187767933742e+01,2.878270411202476708e+01
1.552157759359817035e+01,2.671022910109151738e+01
1.554158330951700506e+01,2.366408844124833877e+01
1.556158902543583977e+01,2.186257888476188782e+01
1.558159474135467271e+01,1.969911177987152229e+01
1.560160045727350742e+01,1.767432236964161518e+01
1.562160617319234035e+01,1.669499857441770274e+01
1.564161188911117506e+01,1.535775311244647057e+01
1.566161760503000977e+01,1.399790323096403810e+01
1.568162332094884270e+01,1.253010712995853204e+01
1.570162903686767564e+01,1.232720271241539933e+01
1.572163475278651035e+01,1.129664406681730426e+01
1.574164046870534506e+01,1.175406916110843092e+01
1.576164618462417977e+01,1.022463440723239714e+01
1.578165190054301270e+01,1.062471704884554491e+01
1.580165761646184563e+01,1.041304874527189739e+01
1.582166333238068034e+01,9.373831631296758005e+00
1.584166904829951505e+01,1.048374386580709583e+01
1.586167476421834799e+01,1.024227188499621377e+01
1.588168048013718270e+01,1.000324459557099388e+01
1.590168619605601563e+01,9.681608767120550851e+00
1.592169191197485034e+01,9.453026293225960330e+00
1.594169762789368505e+01,1.042111952376735928e+01
1.596170334381251799e+01,9.513403194447434430e+00
1.598170905973135092e+01,9.137649791160152191e+00
1.600171477565018563e+01,8.952707338427151385e+00
1.602172049156902034e+01,9.349242256366276038e+00
1.604172620748785505e+01,9.038357755922069359e+00
1.606173192340668976e+01,9.517128529289244909e+00
1.608173763932552092e+01,9.957104036747359999e+00
1.610174335524435563e+01,9.791607793574986118e+00
1.612174907116319034e+01,9.648342151180044013e+00
1.614175478708202505e+01,9.557974641471314925e+00
1.616176050300085620e+01,9.604538364360907465e+00
1.618176621891969091e+01,8.909694019716713598e+00
1.620177193483852562e+01,9.442259898761367509e+00
1.622177765075736033e+01,9.104232191776434391e+00
1.624178336667619504e+01,8.752053764701138050e+00
1.626178908259502620e+01,8.914717624498782911e+00
1.628179479851386091e+01,9.190540097514684703e+00
1.630180051443269562e+01,8.851236403463676794e+00
1.632180623035153033e+01,8.357027003839277768e+00
1.634181194627036149e+01,8.468448292000752886e+00
1.636181766218919620e+01,9.243847268369925985e+00
1.638182337810803091e+01,8.006358771582146261e+00
1.640182909402686562e+01,8.910790781057620791e+00
1.642183480994570033e+01,8.881326228396421385e+00
1.644184052586453504e+01,8.550786845017565696e+00
1.646184624178336620e+01,9.218219128539576701e+00
1.648185195770220091e+01,9.269753312552770907e+00
1.650185767362103562e+01,9.939778823787181139e+00
1.652186338953986677e+01,9.399875857774041776e+00
1.654186910545870148e+01,1.021831023103967695e+01
1.656187482137753619e+01,1.018189244994990972e+01
1.658188053729637090e+01,1.135760218925531362e+01
1.660188625321520561e+01,1.063212559923683642e+01
1.662189196913404032e+01,1.153886466664415167e+01
1.664189768505287148e+01,1.185382774901414393e+01
1.666190340097170619e+01,1.215971896802416552e+01
1.668190911689054090e+01,1.267833305277484257e+01
1.670191483280937561e+01,1.339085087534453855e+01
1.672192054872820677e+01,1.337744475489009766e+01
1.674192626464704148e+01,1.338990900380359861e+01
1.676193198056587619e+01,1.477963399960265001e+01
1.678193769648471090e+01,1.529126780094835247e+01
1.680194341240354561e+01,1.624806377743882635e+01
1.682194912832238032e+01,1.628394729983164524e+01
1.684195484424121148e+01,1.593584128945917655e+01
1.686196056016004619e+01,1.818319805807033873e+01
1.688196627607888090e+01,1.792847776337782406e+01
1.690197199199771205e+01,1.895428371193769124e+01
1.692197770791654676e+01,1.892739272263202821e+01
1.694198342383538147e+01,1.985830438393697506e+01
1.696198913975421618e+01,2.051073319212786927e+01
1.698199485567305089e+01,2.167982990849514380e+01
1.700200057159188560e+01,2.289987471055122725e+01
1.702200628751071676e+01,2.341619002229644764e+01
1.704201200342955147e+01,2.496769161332087705e+01
1.706201771934838618e+01,2.552162668222468511e+01
1.708202343526722089e+01,2.560958369316117711e+01
1.710202915118605205e+01,2.771046457769629612e+01
1.712203486710488676e+01,2.806394125287598484e+01
1.714204058302372147e+01,2.902349449897466727e+01
1.716204629894255618e+01,3.022207477804246878e+01
1.718205201486139089e+01,3.225269207154883588e+01
1.720205773078022204e+01,3.265677585600663946e+01
1.722206344669905675e+01,3.425983534924650797e+01
1.724206916261789146e+01,3.551691240572251473e+01
1.726207487853672617e+01,3.607219106985053259e+01
1.728208059445555733e+01,3.832434548218985526e+01
1.730208631037439204e+01,3.927870962220269746e+01
1.732209202629322675e+01,4.083150058273428584e+01
1.734209774221206146e+01,4.253342103255811679e+01
1.736210345813089617e+01,4.425951304794321572e+01
1.738210917404973088e+01,4.546508676212219058e+01
1.740211488996856204e+01,4.779648430289913819e+01
1.742212060588739675e+01,4.899406701163243838e+01
1.744212632180623146e+01,5.094075398199977656e+01
1.746213203772506262e+01,5.294876756411770913e+01
1.748213775364389733e+01,5.464985891695276621e+01
1.750214346956273204e+01,5.671572343442450403e+01
1.752214918548156675e+01,5.872534568499713714e+01
1.754215490140040146e+01,6.038396992771622251e+01
1.756216061731923617e+01,6.235310194093902680e+01
1.758216633323806732e+01,6.552502767043753806e+01
1.760217204915690203e+01,6.769040749549941438e+01
1.762217776507573674e+01,7.051650933764838669e+01
1.764218348099457145e+01,7.176697882420772601e+01
1.766218919691340261e+01,7.449126489524113026e+01
1.768219491283223732e+01,7.719385623549433717e+01
1.770220062875107203e+01,7.951720141160670607e+01
1.772220634466990674e+01,8.210852901480799915e+01
1.774221206058874145e+01,8.415252338748865668e+01
1.776221777650757616e+01,8.705415171768416371e+01
1.778222349242640732e+01,8.933433426120686249e+01
1.780222920834524203e+01,9.107344256646169356e+01
1.782223492426407674e+01,9.315563456015870258e+01
1.784224064018290790e+01,9.481345354806893511e+01
1.786224635610174261e+01,9.687837338424853328e+01
1.788225207202057732e+01,9.825815617614446751e+01
1.790225778793941203e+01,9.950813864759483351e+01
1.792226350385824674e+01,9.951953423273091914e+01
1.794226921977708145e+01,9.940309239728688340e+01
1.796227493569591260e+01,9.949490620794863105e+01
