angle,intensity
1.000000000000000000e+01,9.812148720362090160e+01
1.002000571591883471e+01,9.879885665965929320e+01
1.004001143183766764e+01,9.957175443853103047e+01
1.006001714775650235e+01,9.947623390727166282e+01
1.008002286367533529e+01,1.000000000000000000e+02
1.010002857959417000e+01,9.930781095723115470e+01
1.012003429551300293e+01,9.787540490555137751e+01
1.014004001143183764e+01,9.695766752704479075e+01
1.016004572735067235e+01,9.540987444351229385e+01
1.018005144326950528e+01,9.178307150614186583e+01
1.020005715918833999e+01,8.926611853192454760e+01
1.022006287510717293e+01,8.703099282156081529e+01
1.024006859102600764e+01,8.347155403200164869e+01
1.026007430694484057e+01,7.841503281528943603e+01
1.028008002286367528e+01,7.321507492092578673e+01
1.030008573878250999e+01,6.897318553918613304e+01
1.032009145470134293e+01,6.445339875071802282e+01
1.034009717062017764e+01,5.758231140439735185e+01
1.036010288653901057e+01,5.256159383080964176e+01
1.038010860245784528e+01,4.816003993775921543e+01
1.040011431837667999e+01,4.420910771269542749e+01
1.042012003429551292e+01,4.047658310806309601e+01
1.044012575021434763e+01,3.619575205727364420e+01
1.046013146613318057e+01,3.408356018390588105e+01
1.048013718205201528e+01,3.198636896776006111e+01
1.050014289797084821e+01,2.990465273245878208e+01
1.052014861388968292e+01,2.944790185016168493e+01
1.054015432980851585e+01,2.700066140710484319e+01
1.056016004572735056e+01,2.682582994793280662e+01
1.058016576164618527e+01,2.561412611572735898e+01
1.060017147756501821e+01,2.596342425176971958e+01
1.062017719348385292e+01,2.625535424602843904e+01
1.064018290940268585e+01,2.666935383330968179e+01
1.066018862532152056e+01,2.682130632928814151e+01
1.068019434124035527e+01,2.748171511931541389e+01
1.070020005715918820e+01,2.739299437574108964e+01
1.072020577307802292e+01,2.689168822483671306e+01
1.074021148899685585e+01,2.799109525258986508e+01
1.076021720491569056e+01,2.723206697887697203e+01
1.078022292083452349e+01,2.879422137801805448e+01
1.080022863675335820e+01,2.793818217928237857e+01
1.082023435267219291e+01,2.847968167414799012e+01
1.084024006859102585e+01,2.890505405052746823e+01
1.086024578450986056e+01,2.920282755169395372e+01
1.088025150042869349e+01,3.042145058769965971e+01
1.090025721634752820e+01,3.143720974369825782e+01
1.092026293226636113e+01,3.077634362705202520e+01
1.094026864818519584e+01,3.144196032652435591e+01
1.096027436410403055e+01,3.348172216545073354e+01
1.098028008002286349e+01,3.231256935210753767e+01
1.100028579594169820e+01,3.347767190258549874e+01
1.102029151186053113e+01,3.377553980481448548e+01
1.104029722777936584e+01,3.534329362251813222e+01
1.106030294369819877e+01,3.579804904344141647e+01
1.108030865961703348e+01,3.680484195920567458e+01
1.110031437553586819e+01,3.672735988052141920e+01
1.112032009145470113e+01,3.740429775401484846e+01
1.114032580737353584e+01,3.828097290542914521e+01
1.116033152329236877e+01,3.869093018033044729e+01
1.118033723921120348e+01,3.930730926858971230e+01
1.120034295513003642e+01,3.992536420115170870e+01
1.122034867104887113e+01,4.066105963379041555e+01
1.124035438696770584e+01,4.246379133883097978e+01
1.126036010288653877e+01,4.291497313071294428e+01
1.128036581880537348e+01,4.262018859240222923e+01
1.130037153472420641e+01,4.477576164007626147e+01
1.132037725064304112e+01,4.396677345214317967e+01
1.134038296656187583e+01,4.559016169217983361e+01
1.136038868248070877e+01,4.770257715417888988e+01
1.138039439839954348e+01,4.679749560353540971e+01
1.140040011431837641e+01,4.832326832289531637e+01
1.142040583023721112e+01,5.018570076000358426e+01
1.144041154615604405e+01,5.055513228749876475e+01
1.146041726207487876e+01,5.244805135299878174e+01
1.148042297799371170e+01,5.180597139256930461e+01
1.150042869391254641e+01,5.350703501145718377e+01
1.152043440983138112e+01,5.424116724258325206e+01
1.154044012575021405e+01,5.509235670069904955e+01
1.156044584166904876e+01,5.622467935953009288e+01
1.158045155758788169e+01,5.575232135692197488e+01
1.160045727350671640e+01,5.816510442589017060e+01
1.162046298942555111e+01,5.698342406122528558e+01
1.164046870534438405e+01,5.906473571748959017e+01
1.166047442126321876e+01,5.931224525935621728e+01
1.168048013718205169e+01,5.824031901545559009e+01
1.170048585310088640e+01,5.778314308494889673e+01
1.172049156901971934e+01,5.829594825306902095e+01
1.174049728493855405e+01,5.761373535450312744e+01
1.176050300085738698e+01,5.745850196345845973e+01
1.178050871677622169e+01,5.706857784918133802e+01
1.180051443269505640e+01,5.492505951825330612e+01
1.182052014861388933e+01,5.399207292744264208e+01
1.184052586453272404e+01,5.135211061877756578e+01
1.186053158045155698e+01,5.080422399614739248e+01
1.188053729637039169e+01,4.802444500603619559e+01
1.190054301228922640e+01,4.405391800546715331e+01
1.192054872820805933e+01,4.184556047605500595e+01
1.194055444412689404e+01,3.805251802043073184e+01
1.196056016004572697e+01,3.513679203273368756e+01
1.198056587596456168e+01,3.088604372649558627e+01
1.200057159188339639e+01,2.804024368774065579e+01
1.202057730780222933e+01,2.406973714823494248e+01
1.204058302372106226e+01,2.096752389802732708e+01
1.206058873963989697e+01,1.872245422058046316e+01
1.208059445555873168e+01,1.670527666630218988e+01
1.210060017147756461e+01,1.426592107762918005e+01
1.212060588739639932e+01,1.252286506999218929e+01
1.214061160331523226e+01,1.161617418211787367e+01
1.216061731923406697e+01,9.303434080630921699e+00
1.218062303515290168e+01,8.714523705943262755e+00
1.220062875107173461e+01,7.980645202101054991e+00
1.222063446699056932e+01,8.272019272402747703e+00
1.224064018290940226e+01,6.195989834772372085e+00
1.226064589882823697e+01,7.591922007821040985e+00
1.228065161474707168e+01,7.144807330349792984e+00
1.230065733066590461e+01,5.894488590781805648e+00
1.232066304658473754e+01,5.055414133949748035e+00
1.234066876250357225e+01,5.140208906625071350e+00
1.236067447842240696e+01,6.200508250278090827e+00
1.238068019434123990e+01,5.621286121096588317e+00
1.240068591026007461e+01,5.042351873311584853e+00
1.242069162617890754e+01,4.311115771904158400e+00
1.244069734209774225e+01,5.209842894375048772e+00
1.246070305801657696e+01,4.610589065347456383e+00
1.248070877393540989e+01,5.079884551986476815e+00
1.250071448985424460e+01,5.314233978299976791e+00
1.252072020577307754e+01,3.990184934985331555e+00
1.254072592169191225e+01,3.723235638893691135e+00
1.256073163761074696e+01,3.194676777557583502e+00
1.258073735352957989e+01,2.694663802642616623e+00
1.260074306944841460e+01,3.311493626726761175e+00
1.262074878536724754e+01,4.149568669487170958e+00
1.264075450128608225e+01,3.122149739970793370e+00
1.266076021720491518e+01,3.379089116526968528e+00
1.268076593312374989e+01,2.752332994844885139e+00
1.270077164904258282e+01,2.263582879016770466e+00
1.272077736496141753e+01,2.192864662002337095e+00
1.274078308088025224e+01,3.462211585394880053e+00
1.276078879679908518e+01,1.891146491505804272e+00
1.278079451271791989e+01,3.631250085206625844e+00
1.280080022863675282e+01,3.341475064405137196e+00
1.282080594455558753e+01,3.572495278809052710e+00
1.284081166047442224e+01,2.626042656501193395e+00
1.286081737639325517e+01,2.991863252590099886e+00
1.288082309231208988e+01,1.817862595837070883e+00
1.290082880823092282e+01,1.816067311721764277e+00
1.292083452414975753e+01,3.518809502014355051e+00
1.294084024006859224e+01,1.888534460530399528e+00
1.296084595598742517e+01,2.948582241831783968e+00
1.298085167190625810e+01,2.901043191793232445e+00
1.300085738782509281e+01,1.804803269763554763e+00
1.302086310374392752e+01,1.731120445902829763e+00
1.304086881966276046e+01,1.690901770170909479e+00
1.306087453558159517e+01,2.192267064637154927e+00
1.308088025150042810e+01,3.103923752612917308e+00
1.310088596741926281e+01,3.004310393353829323e+00
1.312089168333809752e+01,2.583966924749822258e+00
1.314089739925693046e+01,3.268069900726850552e+00
1.316090311517576517e+01,1.758455453009915015e+00
1.318090883109459810e+01,1.692209410383784807e+00
1.320091454701343281e+01,1.782794407804439762e+00
1.322092026293226752e+01,1.941338266510718169e+00
1.324092597885110045e+01,3.279431450951611371e+00
1.326093169476993339e+01,3.139598813042804526e+00
1.328093741068876810e+01,2.864726704843051142e+00
1.330094312660760281e+01,3.010107944938865021e+00
1.332094884252643574e+01,2.458627769777211203e+00
1.334095455844527045e+01,2.253751018515318005e+00
1.336096027436410338e+01,3.343160853660489984e+00
1.338096599028293809e+01,3.451630136680081229e+00
1.340097170620177280e+01,1.901396506693173283e+00
1.342097742212060574e+01,2.822201386907176257e+00
1.344098313803944045e+01,2.147013233349592820e+00
1.346098885395827338e+01,3.511063101578553169e+00
1.348099456987710809e+01,2.565030151776339640e+00
1.350100028579594280e+01,2.467456721362809802e+00
1.352100600171477573e+01,2.271991197061245416e+00
1.354101171763361044e+01,3.126445061685197757e+00
1.356101743355244338e+01,2.984160957606782905e+00
1.358102314947127809e+01,2.686590955502890843e+00
1.360102886539011102e+01,1.620957513955842755e+00
1.362103458130894573e+01,2.526751952408797575e+00
1.364104029722777867e+01,3.097879127918812703e+00
1.366104601314661338e+01,2.455662204098202128e+00
1.368105172906544809e+01,2.753114538657115862e+00
1.370105744498428102e+01,1.652722220304698286e+00
1.372106316090311573e+01,2.654844159572771201e+00
1.374106887682194866e+01,3.048306868458073193e+00
1.376107459274078337e+01,2.032578995084825646e+00
1.378108030865961808e+01,1.862725208782424202e+00
1.380108602457845102e+01,3.348702452367856353e+00
1.382109174049728573e+01,3.422407957534662870e+00
1.384109745641611866e+01,2.456397240595894704e+00
1.386110317233495337e+01,1.869085152875199052e+00
1.388110888825378808e+01,2.934315121184912556e+00
1.390111460417262101e+01,1.680655181083783090e+00
1.392112032009145395e+01,1.661961831673202994e+00
1.394112603601028866e+01,1.739754459337404136e+00
1.396113175192912337e+01,2.453237543817566646e+00
1.398113746784795630e+01,3.481533304204986745e+00
1.400114318376679101e+01,2.071279920624800042e+00
1.402114889968562395e+01,3.104352256678641009e+00
1.404115461560445866e+01,3.384554638876262178e+00
1.406116033152329337e+01,3.341517314385949788e+00
1.408116604744212630e+01,3.408950220623734761e+00
1.410117176336095923e+01,1.850001762581401588e+00
1.412117747927979394e+01,1.805393691069966611e+00
1.414118319519862865e+01,3.534813655829381673e+00
1.416118891111746336e+01,2.414676406926119512e+00
1.418119462703629630e+01,1.882609998862749601e+00
1.420120034295512923e+01,1.988769415136928842e+00
1.422120605887396394e+01,2.044848754809915459e+00
1.424121177479279865e+01,1.866636109109504948e+00
1.426121749071163336e+01,1.942465241826570432e+00
1.428122320663046629e+01,2.664513615695976778e+00
1.430122892254929923e+01,3.523839523833693921e+00
1.432123463846813394e+01,3.294566073521517868e+00
1.434124035438696865e+01,2.947025286874202621e+00
1.436124607030580158e+01,2.726922288109403070e+00
1.438125178622463629e+01,3.252633766899529100e+00
1.440125750214346922e+01,2.984474339979416690e+00
1.442126321806230393e+01,1.937308921751178081e+00
1.444126893398113864e+01,3.612625728244735601e+00
1.446127464989997158e+01,2.098000601756627059e+00
1.448128036581880451e+01,2.877385261619522794e+00
1.450128608173763922e+01,2.118719964788295052e+00
1.452129179765647393e+01,3.640127536781074369e+00
1.454129751357530864e+01,2.613170878635412642e+00
1.456130322949414158e+01,2.429909363816041168e+00
1.458130894541297451e+01,2.340820907467938028e+00
1.460131466133180922e+01,1.924369645475759727e+00
1.462132037725064393e+01,2.475730999523804599e+00
1.464132609316947686e+01,2.352895350460320500e+00
1.466133180908831157e+01,3.783709177496240805e+00
1.468133752500714451e+01,2.681283187559170500e+00
1.470134324092597922e+01,2.712190650766217015e+00
1.472134895684481393e+01,3.094670822186157189e+00
1.474135467276364686e+01,2.141658637509585628e+00
1.476136038868247979e+01,4.048463218127332119e+00
1.478136610460131450e+01,3.740920790118589689e+00
1.480137182052014921e+01,3.751349828056147029e+00
1.482137753643898392e+01,2.991537992963515968e+00
1.484138325235781686e+01,3.777771022335840279e+00
1.486138896827664979e+01,2.952251011853878282e+00
1.488139468419548450e+01,2.677830558192813459e+00
1.490140040011431921e+01,3.306789054704218689e+00
1.492140611603315392e+01,4.369690164876676164e+00
1.494141183195198685e+01,4.423189321925020678e+00
1.496141754787081979e+01,4.479119694433069121e+00
1.498142326378965450e+01,4.557400846532049243e+00
1.500142897970848921e+01,3.418025652254893743e+00
1.502143469562732214e+01,3.770284518870489432e+00
1.504144041154615508e+01,4.934762364895752818e+00
1.506144612746498979e+01,4.021214324324057898e+00
1.508145184338382450e+01,4.725453985324627126e+00
1.510145755930265921e+01,4.783451286764577759e+00
1.512146327522149214e+01,4.133881366925351131e+00
1.514146899114032507e+01,4.401879913290961177e+00
1.516147470705915978e+01,4.481407206708311719e+00
1.518148042297799449e+01,4.504640985963486166e+00
1.520148613889682920e+01,5.690281928820236423e+00
1.522149185481566214e+01,5.609684033612056808e+00
1.524149757073449507e+01,6.340049755202741721e+00
1.526150328665332978e+01,5.195883239976875956e+00
1.528150900257216449e+01,5.355837025260327344e+00
1.530151471849099742e+01,4.997650774973399379e+00
1.532152043440983036e+01,5.496502472620960589e+00
1.534152615032866507e+01,6.657896811377526980e+00
1.536153186624749978e+01,5.787743526981568465e+00
1.538153758216633449e+01,6.008823543780953180e+00
1.540154329808516742e+01,7.857392573457585350e+00
1.542154901400400036e+01,7.654912791814919792e+00
1.544155472992283507e+01,7.694108007003902294e+00
1.546156044584166978e+01,7.472373344023248265e+00
1.548156616176050449e+01,8.631979431665980584e+00
1.550157187767933742e+01,7.806661002960591844e+00
1.552157759359817035e+01,9.062201062905824500e+00
1.554158330951700506e+01,9.396287343106141776e+00
1.556158902543583977e+01,8.759588960265713098e+00
1.558159474135467271e+01,8.250370153799297057e+00
1.560160045727350742e+01,8.436629202782524928e+00
1.562160617319234035e+01,9.566149465759407278e+00
1.564161188911117506e+01,9.370831854498245406e+00
1.566161760503000977e+01,1.030606631973828691e+01
1.568162332094884270e+01,9.974278952770202267e+00
1.570162903686767564e+01,1.073913227776990098e+01
1.572163475278651035e+01,1.036358358025247206e+01
1.574164046870534506e+01,1.188182151529339059e+01
1.576164618462417977e+01,1.266977326514159152e+01
1.578165190054301270e+01,1.144844954884197108e+01
1.580165761646184563e+01,1.337628510796552028e+01
1.582166333238068034e+01,1.336205247976500665e+01
1.584166904829951505e+01,1.367137495324090324e+01
1.586167476421834799e+01,1.437192569285685551e+01
1.588168048013718270e+01,1.481684699687847129e+01
1.590168619605601563e+01,1.506285782324519040e+01
1.592169191197485034e+01,1.475590747107943912e+01
1.594169762789368505e+01,1.476812453823346694e+01
1.596170334381251799e+01,1.671412185103010728e+01
1.598170905973135092e+01,1.567126446280737539e+01
1.600171477565018563e+01,1.780490440698653032e+01
1.602172049156902034e+01,1.786255365562677966e+01
1.604172620748785505e+01,1.871152230866474397e+01
1.606173192340668976e+01,1.879040749205177008e+01
1.608173763932552092e+01,1.873906313927877676e+01
1.610174335524435563e+01,1.921879073340964084e+01
1.612174907116319034e+01,2.110466701877316709e+01
1.614175478708202505e+01,2.107390558877453302e+01
1.616176050300085620e+01,2.105930947566292488e+01
1.618176621891969091e+01,2.307866358701561893e+01
1.620177193483852562e+01,2.233898314481521297e+01
1.622177765075736033e+01,2.329959537106548240e+01
1.624178336667619504e+01,2.381334191154802227e+01
1.626178908259502620e+01,2.508353814344908272e+01
1.628179479851386091e+01,2.651544152790058462e+01
1.630180051443269562e+01,2.618061398986103683e+01
1.632180623035153033e+01,2.790520111550635463e+01
1.634181194627036149e+01,2.800224709268638179e+01
1.636181766218919620e+01,2.834669927002488166e+01
1.638182337810803091e+01,3.007895272578818791e+01
1.640182909402686562e+01,3.074808390508495393e+01
1.642183480994570033e+01,3.205087117348444536e+01
1.644184052586453504e+01,3.309393616781887459e+01
1.646184624178336620e+01,3.282290726973299400e+01
1.648185195770220091e+01,3.302754503215629001e+01
1.650185767362103562e+01,3.412011669679370840e+01
1.652186338953986677e+01,3.584520421088611641e+01
1.654186910545870148e+01,3.512551091482016830e+01
1.656187482137753619e+01,3.685057263513311909e+01
1.658188053729637090e+01,3.674953132463773642e+01
1.660188625321520561e+01,3.711672080851297295e+01
1.662189196913404032e+01,3.820046767742183391e+01
1.664189768505287148e+01,3.796836377463215229e+01
1.666190340097170619e+01,3.638791054999762054e+01
1.668190911689054090e+01,3.686298710407471191e+01
1.670191483280937561e+01,3.509180824351449246e+01
1.672192054872820677e+01,3.458867680778238451e+01
1.674192626464704148e+01,3.413923913031519675e+01
1.676193198056587619e+01,3.288474237885422014e+01
1.678193769648471090e+01,2.960856265579372604e+01
1.680194341240354561e+01,2.932626353582611145e+01
1.682194912832238032e+01,2.634864154829860894e+01
1.684195484424121148e+01,2.482848601868330007e+01
1.686196056016004619e+01,2.152765501175418450e+01
1.688196627607888090e+01,1.941949913818826090e+01
1.690197199199771205e+01,1.749854339975749795e+01
1.692197770791654676e+01,1.616235440904269183e+01
1.694198342383538147e+01,1.347413789417950802e+01
1.696198913975421618e+01,1.383486232712489894e+01
1.698199485567305089e+01,1.142330072234041261e+01
1.700200057159188560e+01,1.095586713205734242e+01
1.702200628751071676e+01,9.287959245284003629e+00
1.704201200342955147e+01,9.903586355386760687e+00
1.706201771934838618e+01,9.194323693155808996e+00
1.708202343526722089e+01,9.079560251146027383e+00
1.710202915118605205e+01,7.133529643438502710e+00
1.712203486710488676e+01,8.369526563571406896e+00
1.714204058302372147e+01,7.605147404112813092e+00
1.716204629894255618e+01,8.278288874560274735e+00
1.718205201486139089e+01,8.011159017071957322e+00
1.720205773078022204e+01,8.468224366587620011e+00
1.722206344669905675e+01,6.454417807116011652e+00
1.724206916261789146e+01,6.377695039319172032e+00
1.726207487853672617e+01,6.313018236372042402e+00
1.728208059445555733e+01,6.625623773681548201e+00
1.730208631037439204e+01,7.029219446499102020e+00
1.732209202629322675e+01,7.076794298644836445e+00
1.734209774221206146e+01,7.399447062578650147e+00
1.736210345813089617e+01,7.346597716435849357e+00
1.738210917404973088e+01,7.160204278442968473e+00
1.740211488996856204e+01,6.544391567426087519e+00
1.742212060588739675e+01,6.743035470473683013e+00
1.744212632180623146e+01,6.662422899599380166e+00
1.746213203772506262e+01,7.719613458510412585e+00
1.748213775364389733e+01,5.835078852066406974e+00
1.750214346956273204e+01,6.889445921061230216e+00
1.752214918548156675e+01,7.496717012149416881e+00
1.754215490140040146e+01,7.103241389168833742e+00
1.756216061731923617e+01,6.957920525903437792e+00
1.758216633323806732e+01,7.728118757246174475e+00
1.760217204915690203e+01,7.650241658115418453e+00
1.762217776507573674e+01,8.386884683360211312e+00
1.764218348099457145e+01,6.832658246608439789e+00
1.766218919691340261e+01,6.810812025014014282e+00
1.768219491283223732e+01,7.229923323825610204e+00
1.770220062875107203e+01,8.102288346480229109e+00
1.772220634466990674e+01,7.923691121607626009e+00
1.774221206058874145e+01,8.544272922253101754e+00
1.776221777650757616e+01,8.849537243943688125e+00
1.778222349242640732e+01,8.038462357004622305e+00
1.780222920834524203e+01,9.077379826811315056e+00
1.782223492426407674e+01,8.825753267819070658e+00
1.784224064018290790e+01,9.959608563076717047e+00
1.786224635610174261e+01,1.036852359687967073e+01
1.788225207202057732e+01,9.812284264924837629e+00
1.790225778793941203e+01,9.644524468364405578e+00
1.792226350385824674e+01,1.025276958309462216e+01
1.794226921977708145e+01,1.127938009887124871e+01
1.796227493569591260e+01,1.053097592740242128e+01
