angle,intensity
1.000000000000000000e+01,5.741249639347076084e+01
1.002000571591883471e+01,5.846018976986005100e+01
1.004001143183766764e+01,5.989318316541324094e+01
1.006001714775650235e+01,5.874364605135241391e+01
1.008002286367533529e+01,5.806781091057055022e+01
1.010002857959417000e+01,5.810575793056099769e+01
1.012003429551300293e+01,5.880663049690178923e+01
1.014004001143183764e+01,5.691402175851103351e+01
1.016004572735067235e+01,5.732573938703903593e+01
1.018005144326950528e+01,5.587564948016986932e+01
1.020005715918833999e+01,5.478910664986210577e+01
1.022006287510717293e+01,5.366708117091026509e+01
1.024006859102600764e+01,5.242487659584334381e+01
1.026007430694484057e+01,4.966558587211490305e+01
1.028008002286367528e+01,4.629507222003066857e+01
1.030008573878250999e+01,4.348645377491448016e+01
1.032009145470134293e+01,4.046353415782680685e+01
1.034009717062017764e+01,3.858340827408854068e+01
1.036010288653901057e+01,3.534568776543481761e+01
1.038010860245784528e+01,3.169008186665359261e+01
1.040011431837667999e+01,2.917165230606097026e+01
1.042012003429551292e+01,2.676318119116649896e+01
1.044012575021434763e+01,2.330851762103607783e+01
1.046013146613318057e+01,1.990532787542394644e+01
1.048013718205201528e+01,1.856989064909465270e+01
1.050014289797084821e+01,1.623017322544997398e+01
1.052014861388968292e+01,1.496965045157578977e+01
1.054015432980851585e+01,1.304285587717994055e+01
1.056016004572735056e+01,1.193242563762908226e+01
1.058016576164618527e+01,1.130281286571263166e+01
1.060017147756501821e+01,1.109363257014765303e+01
1.062017719348385292e+01,9.742978396839335531e+00
1.064018290940268585e+01,9.809775992962212143e+00
1.066018862532152056e+01,9.723913735191308305e+00
1.068019434124035527e+01,9.756021422970952983e+00
1.070020005715918820e+01,8.924638498350802251e+00
1.072020577307802292e+01,7.541173317355095662e+00
1.074021148899685585e+01,8.655674247414181011e+00
1.076021720491569056e+01,7.446785636307139633e+00
1.078022292083452349e+01,8.168380174524282111e+00
1.080022863675335820e+01,7.131397991365941103e+00
1.082023435267219291e+01,7.686375141951737433e+00
1.084024006859102585e+01,6.486796181536734984e+00
1.086024578450986056e+01,6.050214820229069979e+00
1.088025150042869349e+01,7.618867600877026192e+00
1.090025721634752820e+01,5.825341661741801680e+00
1.092026293226636113e+01,5.728156687118106660e+00
1.094026864818519584e+01,7.293604876849048679e+00
1.096027436410403055e+01,6.285443147924572038e+00
1.098028008002286349e+01,5.749932943984001454e+00
1.100028579594169820e+01,7.027649847908395309e+00
1.102029151186053113e+01,6.230015286743078917e+00
1.104029722777936584e+01,6.769022244447921999e+00
1.106030294369819877e+01,6.551532954806182474e+00
1.108030865961703348e+01,6.285483473986514191e+00
1.110031437553586819e+01,5.732823035052774685e+00
1.112032009145470113e+01,5.338200911037967344e+00
1.114032580737353584e+01,6.297630489783998975e+00
1.116033152329236877e+01,5.251001855035540622e+00
1.118033723921120348e+01,6.822732384207588652e+00
1.120034295513003642e+01,6.340149377955973442e+00
1.122034867104887113e+01,6.091591429078242470e+00
1.124035438696770584e+01,5.835923650907862914e+00
1.126036010288653877e+01,5.995756115804067754e+00
1.128036581880537348e+01,6.429106200404925531e+00
1.130037153472420641e+01,5.420022059771347323e+00
1.132037725064304112e+01,5.699561664140794903e+00
1.134038296656187583e+01,4.922729177532694678e+00
1.136038868248070877e+01,6.697503556467620633e+00
1.138039439839954348e+01,4.933431247980706758e+00
1.140040011431837641e+01,5.027074655706694095e+00
1.142040583023721112e+01,5.047993665046043077e+00
1.144041154615604405e+01,4.917742993237223637e+00
1.146041726207487876e+01,6.660449583525912765e+00
1.148042297799371170e+01,5.822348813620613406e+00
1.150042869391254641e+01,5.449688490264520624e+00
1.152043440983138112e+01,6.386314985844363967e+00
1.154044012575021405e+01,5.924574506540915664e+00
1.156044584166904876e+01,5.751600215031298369e+00
1.158045155758788169e+01,5.415505955075714972e+00
1.160045727350671640e+01,6.011029013021534695e+00
1.162046298942555111e+01,5.388644362893579398e+00
1.164046870534438405e+01,6.022372503427676271e+00
1.166047442126321876e+01,6.139202064751978050e+00
1.168048013718205169e+01,6.536342473419475496e+00
1.170048585310088640e+01,5.694555087991315823e+00
1.172049156901971934e+01,6.520051682079992084e+00
1.174049728493855405e+01,5.661567325023289854e+00
1.176050300085738698e+01,5.370024152696117881e+00
1.178050871677622169e+01,5.575082015967506521e+00
1.180051443269505640e+01,6.238185371303513804e+00
1.182052014861388933e+01,6.498875879086717156e+00
1.184052586453272404e+01,4.904537565759026663e+00
1.186053158045155698e+01,6.128064539185094972e+00
1.188053729637039169e+01,4.772369993815257949e+00
1.190054301228922640e+01,6.128561550489910026e+00
1.192054872820805933e+01,4.836613589085327902e+00
1.194055444412689404e+01,6.072819637316238861e+00
1.196056016004572697e+01,4.819390238986836827e+00
1.198056587596456168e+01,5.062830752738837425e+00
1.200057159188339639e+01,6.518278781904344399e+00
1.202057730780222933e+01,5.847241537881742168e+00
1.204058302372106226e+01,5.390975204205990856e+00
1.206058873963989697e+01,4.640941623789021087e+00
1.208059445555873168e+01,4.765689338925346519e+00
1.210060017147756461e+01,4.787519497969054960e+00
1.212060588739639932e+01,5.313198499058543689e+00
1.214061160331523226e+01,5.797481975632519990e+00
1.216061731923406697e+01,6.057921401529640981e+00
1.218062303515290168e+01,5.645998283347077873e+00
1.220062875107173461e+01,5.878048596314407348e+00
1.222063446699056932e+01,6.347056511426455216e+00
1.224064018290940226e+01,5.887330831256143426e+00
1.226064589882823697e+01,4.950667069015453059e+00
1.228065161474707168e+01,5.179856842992013100e+00
1.230065733066590461e+01,6.010186092386670786e+00
1.232066304658473754e+01,6.191082315939282488e+00
1.234066876250357225e+01,5.729447524890179722e+00
1.236067447842240696e+01,5.738372042821816343e+00
1.238068019434123990e+01,5.548709416351786494e+00
1.240068591026007461e+01,6.003967511734795259e+00
1.242069162617890754e+01,6.788900764070096017e+00
1.244069734209774225e+01,6.567637901892023677e+00
1.246070305801657696e+01,5.670728692182812836e+00
1.248070877393540989e+01,7.232603575485287095e+00
1.250071448985424460e+01,7.220313547297448231e+00
1.252072020577307754e+01,7.567061417693708769e+00
1.254072592169191225e+01,7.486554756761083951e+00
1.256073163761074696e+01,6.690563913183747324e+00
1.258073735352957989e+01,7.785119823127635286e+00
1.260074306944841460e+01,6.206003844487633536e+00
1.262074878536724754e+01,6.851867563028393171e+00
1.264075450128608225e+01,7.220926016830769179e+00
1.266076021720491518e+01,8.038640227049826947e+00
1.268076593312374989e+01,7.871361103079560273e+00
1.270077164904258282e+01,8.471089921025935610e+00
1.272077736496141753e+01,8.276676646757270106e+00
1.274078308088025224e+01,7.478256929486720495e+00
1.276078879679908518e+01,8.521471409529638663e+00
1.278079451271791989e+01,7.648159836405082679e+00
1.280080022863675282e+01,8.648405758066191495e+00
1.282080594455558753e+01,9.079249012530079099e+00
1.284081166047442224e+01,9.340288241893908605e+00
1.286081737639325517e+01,8.804892986202302652e+00
1.288082309231208988e+01,8.595461803773153164e+00
1.290082880823092282e+01,9.226906844129779017e+00
1.292083452414975753e+01,9.566152104922366561e+00
1.294084024006859224e+01,8.920763985945487917e+00
1.296084595598742517e+01,9.630133841698276242e+00
1.298085167190625810e+01,1.027359213476776745e+01
1.300085738782509281e+01,1.025574125210911802e+01
1.302086310374392752e+01,9.715172652809719978e+00
1.304086881966276046e+01,1.165784714935469069e+01
1.306087453558159517e+01,1.100418666285608715e+01
1.308088025150042810e+01,1.110534594492682814e+01
1.310088596741926281e+01,1.119685839034259089e+01
1.312089168333809752e+01,1.101164615110843670e+01
1.314089739925693046e+01,1.270103265921779290e+01
1.316090311517576517e+01,1.306592288867533469e+01
1.318090883109459810e+01,1.238947352387711653e+01
1.320091454701343281e+01,1.196656311466976952e+01
1.322092026293226752e+01,1.314194936635355404e+01
1.324092597885110045e+01,1.317804242899737233e+01
1.326093169476993339e+01,1.355863115663455787e+01
1.328093741068876810e+01,1.372314429817452996e+01
1.330094312660760281e+01,1.402850405873952511e+01
1.332094884252643574e+01,1.556613341614821167e+01
1.334095455844527045e+01,1.557644327221454184e+01
1.336096027436410338e+01,1.621428305927036462e+01
1.338096599028293809e+01,1.646604339575101861e+01
1.340097170620177280e+01,1.570421869777396573e+01
1.342097742212060574e+01,1.736005812977084517e+01
1.344098313803944045e+01,1.752312135503996515e+01
1.346098885395827338e+01,1.680534436126119857e+01
1.348099456987710809e+01,1.783164506600307320e+01
1.350100028579594280e+01,1.739867162880826967e+01
1.352100600171477573e+01,1.796148491931862878e+01
1.354101171763361044e+01,1.891944248491465785e+01
1.356101743355244338e+01,1.943469184830608754e+01
1.358102314947127809e+01,2.105366239688532204e+01
1.360102886539011102e+01,2.127322657364104685e+01
1.362103458130894573e+01,2.133904897307508364e+01
1.364104029722777867e+01,2.122971828803399319e+01
1.366104601314661338e+01,2.172859514851930740e+01
1.368105172906544809e+01,2.317407918172623127e+01
1.370105744498428102e+01,2.308881037191128272e+01
1.372106316090311573e+01,2.451560915780224192e+01
1.374106887682194866e+01,2.460238830201187454e+01
1.376107459274078337e+01,2.530652725161528593e+01
1.378108030865961808e+01,2.576532623730241056e+01
1.380108602457845102e+01,2.535438637204653034e+01
1.382109174049728573e+01,2.632395467423307167e+01
1.384109745641611866e+01,2.694769843085531491e+01
1.386110317233495337e+01,2.764041369889102739e+01
1.388110888825378808e+01,2.890233698844749455e+01
1.390111460417262101e+01,3.060039090006661056e+01
1.392112032009145395e+01,3.097107966998873962e+01
1.394112603601028866e+01,3.144401713792963093e+01
1.396113175192912337e+01,3.203277659111049047e+01
1.398113746784795630e+01,3.363710513188914319e+01
1.400114318376679101e+01,3.331202979800464448e+01
1.402114889968562395e+01,3.488643927156130786e+01
1.404115461560445866e+01,3.487653064979357254e+01
1.406116033152329337e+01,3.685216776920655235e+01
1.408116604744212630e+01,3.624678424909562580e+01
1.410117176336095923e+01,3.781168989551758841e+01
1.412117747927979394e+01,3.866660607991562415e+01
1.414118319519862865e+01,3.902486979861489402e+01
1.416118891111746336e+01,4.036114084707836014e+01
1.418119462703629630e+01,4.229191841715187650e+01
1.420120034295512923e+01,4.275004679817822506e+01
1.422120605887396394e+01,4.426220630636143483e+01
1.424121177479279865e+01,4.467446842139231933e+01
1.426121749071163336e+01,4.591783186511016623e+01
1.428122320663046629e+01,4.800812292535436399e+01
1.430122892254929923e+01,4.732531929683687366e+01
1.432123463846813394e+01,4.917135556754142556e+01
1.434124035438696865e+01,5.025353753973728033e+01
1.436124607030580158e+01,5.163153197897160140e+01
1.438125178622463629e+01,5.239469663828372603e+01
1.440125750214346922e+01,5.190294011804519414e+01
1.442126321806230393e+01,5.346948778630130761e+01
1.444126893398113864e+01,5.323111702084498376e+01
1.446127464989997158e+01,5.497513215404190845e+01
1.448128036581880451e+01,5.502274733405903362e+01
1.450128608173763922e+01,5.482343902378242717e+01
1.452129179765647393e+01,5.426208675548887328e+01
1.454129751357530864e+01,5.374852502809319788e+01
1.456130322949414158e+01,5.166327862416380867e+01
1.458130894541297451e+01,5.032429496326749074e+01
1.460131466133180922e+01,4.966670659093779250e+01
1.462132037725064393e+01,4.691836518471838247e+01
1.464132609316947686e+01,4.351441935133582462e+01
1.466133180908831157e+01,4.107652731782727074e+01
1.468133752500714451e+01,3.896556046955885222e+01
1.470134324092597922e+01,3.626384397126036419e+01
1.472134895684481393e+01,3.329930573380551095e+01
1.474135467276364686e+01,2.893387656002648356e+01
1.476136038868247979e+01,2.619796619535896554e+01
1.478136610460131450e+01,2.381440835060777061e+01
1.480137182052014921e+01,2.063952572573794342e+01
1.482137753643898392e+01,1.864743269059503206e+01
1.484138325235781686e+01,1.614494390225920029e+01
1.486138896827664979e+01,1.566498924066170773e+01
1.488139468419548450e+01,1.356674644275928543e+01
1.490140040011431921e+01,1.210118068743784114e+01
1.492140611603315392e+01,1.056426303087921426e+01
1.494141183195198685e+01,9.673752573450133951e+00
1.496141754787081979e+01,9.190291250051332739e+00
1.498142326378965450e+01,8.133398393736818832e+00
1.500142897970848921e+01,9.233415936933090151e+00
1.502143469562732214e+01,7.756485064557700149e+00
1.504144041154615508e+01,7.438588039550670494e+00
1.506144612746498979e+01,7.488698760586353309e+00
1.508145184338382450e+01,7.138012361061647049e+00
1.510145755930265921e+01,6.990783501213106987e+00
1.512146327522149214e+01,7.069737325691765939e+00
1.514146899114032507e+01,7.915280749539008731e+00
1.516147470705915978e+01,6.796970393061814164e+00
1.518148042297799449e+01,7.455215133233584979e+00
1.520148613889682920e+01,7.929649779365848694e+00
1.522149185481566214e+01,8.210831585719597925e+00
1.524149757073449507e+01,8.462374457338412981e+00
1.526150328665332978e+01,7.960935260266154501e+00
1.528150900257216449e+01,7.040899913721386127e+00
1.530151471849099742e+01,8.440240745861741445e+00
1.532152043440983036e+01,7.313932041199772804e+00
1.534152615032866507e+01,8.838142227237458570e+00
1.536153186624749978e+01,8.773314895526135970e+00
1.538153758216633449e+01,9.095337359839634317e+00
1.540154329808516742e+01,8.010978268185301232e+00
1.542154901400400036e+01,8.527306298516494465e+00
1.544155472992283507e+01,9.689169673812894956e+00
1.546156044584166978e+01,9.645801811370512624e+00
1.548156616176050449e+01,9.588854118698916906e+00
1.550157187767933742e+01,9.789071890499176476e+00
1.552157759359817035e+01,9.797071896797476143e+00
1.554158330951700506e+01,8.985891498540217626e+00
1.556158902543583977e+01,9.193651625328309152e+00
1.558159474135467271e+01,9.115874635642777335e+00
1.560160045727350742e+01,1.050959582341870302e+01
1.562160617319234035e+01,1.095920944636947603e+01
1.564161188911117506e+01,1.138896199816518440e+01
1.566161760503000977e+01,1.193812308225574448e+01
1.568162332094884270e+01,1.230694038957355652e+01
1.570162903686767564e+01,1.175404618323907258e+01
1.572163475278651035e+01,1.165149092817088494e+01
1.574164046870534506e+01,1.303055799278322979e+01
1.576164618462417977e+01,1.238579902119079357e+01
1.578165190054301270e+01,1.412855210984578669e+01
1.580165761646184563e+01,1.413953456090921890e+01
1.582166333238068034e+01,1.488169304994828934e+01
1.584166904829951505e+01,1.398162673432844727e+01
1.586167476421834799e+01,1.599357109047972436e+01
1.588168048013718270e+01,1.571078867337567608e+01
1.590168619605601563e+01,1.533490724910229730e+01
1.592169191197485034e+01,1.730898059181992821e+01
1.594169762789368505e+01,1.753363818538535313e+01
1.596170334381251799e+01,1.820501322212899709e+01
1.598170905973135092e+01,1.788612352383817239e+01
1.600171477565018563e+01,2.011660721927805540e+01
1.602172049156902034e+01,1.950149442633776076e+01
1.604172620748785505e+01,2.030843694239647945e+01
1.606173192340668976e+01,2.154963291093255151e+01
1.608173763932552092e+01,2.253007704984263526e+01
1.610174335524435563e+01,2.315565613640862352e+01
1.612174907116319034e+01,2.390807367639729364e+01
1.614175478708202505e+01,2.457201470170961244e+01
1.616176050300085620e+01,2.514695906440855566e+01
1.618176621891969091e+01,2.694489466959024426e+01
1.620177193483852562e+01,2.736868395251341113e+01
1.622177765075736033e+01,2.889662497194012047e+01
1.624178336667619504e+01,2.900519702051111892e+01
1.626178908259502620e+01,3.028837210812570646e+01
1.628179479851386091e+01,3.141095245569893635e+01
1.630180051443269562e+01,3.386314121765408913e+01
1.632180623035153033e+01,3.488030234149253772e+01
1.634181194627036149e+01,3.464008677024320804e+01
1.636181766218919620e+01,3.696482749339296703e+01
1.638182337810803091e+01,3.750199726098267661e+01
1.640182909402686562e+01,4.007751865055791285e+01
1.642183480994570033e+01,4.019164047541471518e+01
1.644184052586453504e+01,4.255203526799515146e+01
1.646184624178336620e+01,4.287021597309018262e+01
1.648185195770220091e+01,4.578676794205097877e+01
1.650185767362103562e+01,4.612658709168434257e+01
1.652186338953986677e+01,4.818360272480877171e+01
1.654186910545870148e+01,4.997275095313233351e+01
1.656187482137753619e+01,5.238137036628118182e+01
1.658188053729637090e+01,5.368689637346786014e+01
1.660188625321520561e+01,5.494589229472411773e+01
1.662189196913404032e+01,5.841915463893464988e+01
1.664189768505287148e+01,6.074599807016916486e+01
1.666190340097170619e+01,6.124507642644955752e+01
1.668190911689054090e+01,6.353234433774753143e+01
1.670191483280937561e+01,6.564260688815237188e+01
1.672192054872820677e+01,6.939247680162199572e+01
1.674192626464704148e+01,7.019441616157303088e+01
1.676193198056587619e+01,7.269132170016627015e+01
1.678193769648471090e+01,7.512012584542587490e+01
1.680194341240354561e+01,7.733055289654362241e+01
1.682194912832238032e+01,8.043120727503004730e+01
1.684195484424121148e+01,8.327001440715177694e+01
1.686196056016004619e+01,8.581769690179054066e+01
1.688196627607888090e+01,8.692020675808140595e+01
1.690197199199771205e+01,8.998167486685019867e+01
1.692197770791654676e+01,9.203948786164778539e+01
1.694198342383538147e+01,9.442547761621669622e+01
1.696198913975421618e+01,9.600934877461483552e+01
1.698199485567305089e+01,9.760426007354739397e+01
1.700200057159188560e+01,9.878146856973363299e+01
1.702200628751071676e+01,9.866209203840293185e+01
1.704201200342955147e+01,9.983681959186750987e+01
1.706201771934838618e+01,1.000000000000000000e+02
1.708202343526722089e+01,9.790233270945105915e+01
1.710202915118605205e+01,9.740696783780249746e+01
1.712203486710488676e+01,9.604610895409182092e+01
1.714204058302372147e+01,9.324387148665034886e+01
1.716204629894255618e+01,8.991891743926368008e+01
1.718205201486139089e+01,8.784907372258655300e+01
1.720205773078022204e+01,8.254025593262367977e+01
1.722206344669905675e+01,8.023778108826456901e+01
1.724206916261789146e+01,7.633787485008976148e+01
1.726207487853672617e+01,7.229938899024462273e+01
1.728208059445555733e+01,6.772502901679148124e+01
1.730208631037439204e+01,6.488065223372640844e+01
1.732209202629322675e+01,6.149329083517977779e+01
1.734209774221206146e+01,5.861287441167695533e+01
1.736210345813089617e+01,5.678379896403046700e+01
1.738210917404973088e+01,5.465817550989790874e+01
1.740211488996856204e+01,5.396238773273106659e+01
1.742212060588739675e+01,5.333536232700224389e+01
1.744212632180623146e+01,5.309706451991652898e+01
1.746213203772506262e+01,5.349465851014470275e+01
1.748213775364389733e+01,5.370954011651257076e+01
1.750214346956273204e+01,5.568975870286520546e+01
1.752214918548156675e+01,5.649393838278537316e+01
1.754215490140040146e+01,5.685963087678871375e+01
1.756216061731923617e+01,5.874792858780651272e+01
1.758216633323806732e+01,6.048186210856955825e+01
1.760217204915690203e+01,6.126997671325520400e+01
1.762217776507573674e+01,6.200305008388151151e+01
1.764218348099457145e+01,6.405595604573223056e+01
1.766218919691340261e+01,6.615399294085126769e+01
1.768219491283223732e+01,6.705074376308871820e+01
1.770220062875107203e+01,6.934754571907680543e+01
1.772220634466990674e+01,7.055815083927973319e+01
1.774221206058874145e+01,7.143161011698725815e+01
1.776221777650757616e+01,7.228898032490664605e+01
1.778222349242640732e+01,7.238213876513762557e+01
1.780222920834524203e+01,7.302983327173903660e+01
1.782223492426407674e+01,7.165998105559928888e+01
1.784224064018290790e+01,7.107619167589726317e+01
1.786224635610174261e+01,6.994368217686511002e+01
1.788225207202057732e+01,6.955638210283872525e+01
1.790225778793941203e+01,6.776269215371937094e+01
1.792226350385824674e+01,6.506481512007140111e+01
1.794226921977708145e+01,6.127058888564054939e+01
1.796227493569591260e+01,5.667534764137283787e+01
