angle,intensity
1.000000000000000000e+01,8.119665308533734560e+01
1.002000571591883471e+01,8.799388075127718878e+01
1.004001143183766764e+01,8.948403301390700904e+01
1.006001714775650235e+01,9.112818627768579915e+01
1.008002286367533529e+01,9.244671560687967826e+01
1.010002857959417000e+01,9.350671567970287867e+01
1.012003429551300293e+01,9.436879909794258481e+01
1.014004001143183764e+01,9.530583344374878152e+01
1.016004572735067235e+01,9.723214177126246227e+01
1.018005144326950528e+01,9.759975339218479462e+01
1.020005715918833999e+01,9.808355719019542107e+01
1.022006287510717293e+01,9.852098578118497585e+01
1.024006859102600764e+01,1.000000000000000000e+02
1.026007430694484057e+01,9.909022664088993793e+01
1.028008002286367528e+01,9.924981524046810932e+01
1.030008573878250999e+01,9.901241202014881537e+01
1.032009145470134293e+01,9.840911195572277848e+01
1.034009717062017764e+01,9.810719793298683555e+01
1.036010288653901057e+01,9.717558547742157771e+01
1.038010860245784528e+01,9.500609686691142031e+01
1.040011431837667999e+01,9.347356939024541589e+01
1.042012003429551292e+01,9.073169437138253102e+01
1.044012575021434763e+01,8.841928825162678152e+01
1.046013146613318057e+01,8.425284333578818519e+01
1.048013718205201528e+01,8.077813163782995787e+01
1.050014289797084821e+01,7.659559636870126553e+01
1.052014861388968292e+01,7.144855556144862874e+01
1.054015432980851585e+01,6.761256232643177100e+01
1.056016004572735056e+01,6.189552478972142779e+01
1.058016576164618527e+01,5.795612514079770250e+01
1.060017147756501821e+01,5.326814616212809028e+01
1.062017719348385292e+01,4.906871225132434944e+01
1.064018290940268585e+01,4.500318925302296691e+01
1.066018862532152056e+01,4.126726751847765229e+01
1.068019434124035527e+01,3.889645466633506032e+01
1.070020005715918820e+01,3.622192602477876022e+01
1.072020577307802292e+01,3.442875825608319218e+01
1.074021148899685585e+01,3.260967619478656587e+01
1.076021720491569056e+01,3.231143443728474551e+01
1.078022292083452349e+01,3.126914439400587753e+01
1.080022863675335820e+01,3.117564925824815347e+01
1.082023435267219291e+01,3.071923382511096889e+01
1.084024006859102585e+01,3.069232769502803393e+01
1.086024578450986056e+01,3.124973716698426784e+01
1.088025150042869349e+01,3.118537791326327380e+01
1.090025721634752820e+01,3.125935953828896885e+01
1.092026293226636113e+01,3.162156185179320289e+01
1.094026864818519584e+01,3.116445113017468316e+01
1.096027436410403055e+01,3.239224644064267977e+01
1.098028008002286349e+01,3.117680588168065015e+01
1.100028579594169820e+01,3.285700681172023252e+01
1.102029151186053113e+01,3.336832597863268290e+01
1.104029722777936584e+01,3.279561606761215131e+01
1.106030294369819877e+01,3.315531987186551532e+01
1.108030865961703348e+01,3.328140284365495916e+01
1.110031437553586819e+01,3.407850091460178277e+01
1.112032009145470113e+01,3.426701098048172867e+01
1.114032580737353584e+01,3.416043536653214119e+01
1.116033152329236877e+01,3.410593008278088689e+01
1.118033723921120348e+01,3.489145151993210447e+01
1.120034295513003642e+01,3.575934018742437104e+01
1.122034867104887113e+01,3.510509918696429565e+01
1.124035438696770584e+01,3.577874147066994226e+01
1.126036010288653877e+01,3.605368220466875329e+01
1.128036581880537348e+01,3.540062163624357794e+01
1.130037153472420641e+01,3.565476158103270166e+01
1.132037725064304112e+01,3.639254879450830060e+01
1.134038296656187583e+01,3.705544957044032373e+01
1.136038868248070877e+01,3.629932167976998869e+01
1.138039439839954348e+01,3.654010703096139423e+01
1.140040011431837641e+01,3.788369221639433704e+01
1.142040583023721112e+01,3.781449923963558035e+01
1.144041154615604405e+01,3.830542883025668033e+01
1.146041726207487876e+01,3.999008377654393342e+01
1.148042297799371170e+01,4.036925080990307890e+01
1.150042869391254641e+01,3.968040584979050323e+01
1.152043440983138112e+01,4.055634367741529900e+01
1.154044012575021405e+01,4.131660889066218090e+01
1.156044584166904876e+01,4.241139167443143521e+01
1.158045155758788169e+01,4.390220148900493768e+01
1.160045727350671640e+01,4.423476016415582990e+01
1.162046298942555111e+01,4.496536956227410542e+01
1.164046870534438405e+01,4.585803673557978044e+01
1.166047442126321876e+01,4.652646813089011602e+01
1.168048013718205169e+01,4.715839275848001932e+01
1.170048585310088640e+01,4.827513071117977717e+01
1.172049156901971934e+01,4.967817380341055866e+01
1.174049728493855405e+01,5.016250474024045047e+01
1.176050300085738698e+01,5.123399067775342530e+01
1.178050871677622169e+01,5.156526460879092610e+01
1.180051443269505640e+01,5.230809957793269405e+01
1.182052014861388933e+01,5.281818217614797817e+01
1.184052586453272404e+01,5.346186940985254665e+01
1.186053158045155698e+01,5.419669647804616375e+01
1.188053729637039169e+01,5.383654898040595072e+01
1.190054301228922640e+01,5.553270350085904994e+01
1.192054872820805933e+01,5.527350539644584160e+01
1.194055444412689404e+01,5.467632568389782932e+01
1.196056016004572697e+01,5.415964799126111018e+01
1.198056587596456168e+01,5.433400254733284385e+01
1.200057159188339639e+01,5.443652287337360463e+01
1.202057730780222933e+01,5.366244876746495152e+01
1.204058302372106226e+01,5.207868142508627329e+01
1.206058873963989697e+01,5.044753467233503130e+01
1.208059445555873168e+01,4.894863407555918400e+01
1.210060017147756461e+01,4.712369376226094175e+01
1.212060588739639932e+01,4.546553159450058956e+01
1.214061160331523226e+01,4.205825081452288572e+01
1.216061731923406697e+01,4.049861103109976312e+01
1.218062303515290168e+01,3.761291320080138689e+01
1.220062875107173461e+01,3.482282971875970645e+01
1.222063446699056932e+01,3.190258422483282885e+01
1.224064018290940226e+01,2.960027176950038452e+01
1.226064589882823697e+01,2.799693394469873198e+01
1.228065161474707168e+01,2.450311942452742997e+01
1.230065733066590461e+01,2.319524217468782012e+01
1.232066304658473754e+01,2.012463770855286782e+01
1.234066876250357225e+01,1.888962726651463342e+01
1.236067447842240696e+01,1.767703367243658974e+01
1.238068019434123990e+01,1.591470080623240335e+01
1.240068591026007461e+01,1.510960633766820393e+01
1.242069162617890754e+01,1.465566016127075244e+01
1.244069734209774225e+01,1.278038577756234595e+01
1.246070305801657696e+01,1.292547674767378396e+01
1.248070877393540989e+01,1.186688570527197228e+01
1.250071448985424460e+01,1.168198080950109663e+01
1.252072020577307754e+01,1.174415364526889327e+01
1.254072592169191225e+01,1.124774727605931268e+01
1.256073163761074696e+01,1.117884215612184562e+01
1.258073735352957989e+01,1.094822570895871472e+01
1.260074306944841460e+01,1.120481913681365427e+01
1.262074878536724754e+01,1.033633236273514022e+01
1.264075450128608225e+01,9.568149271470911543e+00
1.266076021720491518e+01,9.903536702082458731e+00
1.268076593312374989e+01,9.564902300754138054e+00
1.270077164904258282e+01,9.471721101870011594e+00
1.272077736496141753e+01,9.829063892041585149e+00
1.274078308088025224e+01,8.884316124200847042e+00
1.276078879679908518e+01,8.231510848177643780e+00
1.278079451271791989e+01,8.212898571257495561e+00
1.280080022863675282e+01,7.429885940642424025e+00
1.282080594455558753e+01,6.904326741768396225e+00
1.284081166047442224e+01,7.554669824426071933e+00
1.286081737639325517e+01,6.158757365397899974e+00
1.288082309231208988e+01,6.323628527558920354e+00
1.290082880823092282e+01,6.062469275518545864e+00
1.292083452414975753e+01,5.360718841746105134e+00
1.294084024006859224e+01,5.420013395641311682e+00
1.296084595598742517e+01,5.195296977121476090e+00
1.298085167190625810e+01,4.701219268626442016e+00
1.300085738782509281e+01,5.041683640344384543e+00
1.302086310374392752e+01,4.597344375326184007e+00
1.304086881966276046e+01,4.701421936788426237e+00
1.306087453558159517e+01,4.606287953270737034e+00
1.308088025150042810e+01,4.353011488711571175e+00
1.310088596741926281e+01,4.458553627619529891e+00
1.312089168333809752e+01,3.621139492016257400e+00
1.314089739925693046e+01,3.651127792068454170e+00
1.316090311517576517e+01,3.571576292117387919e+00
1.318090883109459810e+01,4.001279223034965860e+00
1.320091454701343281e+01,4.239378525641521733e+00
1.322092026293226752e+01,3.661051919690542888e+00
1.324092597885110045e+01,4.510638409240382174e+00
1.326093169476993339e+01,3.863988595157006767e+00
1.328093741068876810e+01,4.085003752522750275e+00
1.330094312660760281e+01,3.848501696437638842e+00
1.332094884252643574e+01,3.701815152641719120e+00
1.334095455844527045e+01,3.567926835410989206e+00
1.336096027436410338e+01,4.547330943721895835e+00
1.338096599028293809e+01,3.544794896858451061e+00
1.340097170620177280e+01,4.132335094015886057e+00
1.342097742212060574e+01,3.436782390168881651e+00
1.344098313803944045e+01,4.114952623673850063e+00
1.346098885395827338e+01,4.399379280491612754e+00
1.348099456987710809e+01,4.047220628897431283e+00
1.350100028579594280e+01,3.413608446677594443e+00
1.352100600171477573e+01,4.008864132369915012e+00
1.354101171763361044e+01,3.481714474534681081e+00
1.356101743355244338e+01,3.978419503430164816e+00
1.358102314947127809e+01,3.754157787199917884e+00
1.360102886539011102e+01,3.569626186974536264e+00
1.362103458130894573e+01,4.451988343160618200e+00
1.364104029722777867e+01,3.902357401321512320e+00
1.366104601314661338e+01,3.427325236051415480e+00
1.368105172906544809e+01,3.620515726360447939e+00
1.370105744498428102e+01,4.071639780420164278e+00
1.372106316090311573e+01,3.862270634263198943e+00
1.374106887682194866e+01,3.552559671937083330e+00
1.376107459274078337e+01,3.387599194091154065e+00
1.378108030865961808e+01,3.130811383291799199e+00
1.380108602457845102e+01,3.267065378055439062e+00
1.382109174049728573e+01,3.635333160528044338e+00
1.384109745641611866e+01,4.253134772931652208e+00
1.386110317233495337e+01,3.909142721594339065e+00
1.388110888825378808e+01,3.591186041034620580e+00
1.390111460417262101e+01,4.370338927807114970e+00
1.392112032009145395e+01,3.390879864725995674e+00
1.394112603601028866e+01,3.019422443708940307e+00
1.396113175192912337e+01,3.512717833363969699e+00
1.398113746784795630e+01,3.096166706733684659e+00
1.400114318376679101e+01,4.059980720146999289e+00
1.402114889968562395e+01,3.761589345445633725e+00
1.404115461560445866e+01,4.084147658079181120e+00
1.406116033152329337e+01,4.053785763688286359e+00
1.408116604744212630e+01,4.139863235614953396e+00
1.410117176336095923e+01,2.886818797144873994e+00
1.412117747927979394e+01,3.489083761193704447e+00
1.414118319519862865e+01,3.887775235157383769e+00
1.416118891111746336e+01,2.879273288978836831e+00
1.418119462703629630e+01,4.118175998111704317e+00
1.420120034295512923e+01,3.959560194667374855e+00
1.422120605887396394e+01,3.956395151788563602e+00
1.424121177479279865e+01,3.653425648143859839e+00
1.426121749071163336e+01,3.431358897180077694e+00
1.428122320663046629e+01,3.885255496106438500e+00
1.430122892254929923e+01,3.758493615747386496e+00
1.432123463846813394e+01,3.908951655358197996e+00
1.434124035438696865e+01,4.589142016946969882e+00
1.436124607030580158e+01,2.743723360552826840e+00
1.438125178622463629e+01,3.274909716835704643e+00
1.440125750214346922e+01,3.281855370240465142e+00
1.442126321806230393e+01,4.256899397729871914e+00
1.444126893398113864e+01,4.517804988569853464e+00
1.446127464989997158e+01,3.453661993392571627e+00
1.448128036581880451e+01,3.809535648961003496e+00
1.450128608173763922e+01,3.603309928335477252e+00
1.452129179765647393e+01,3.104082179811820996e+00
1.454129751357530864e+01,3.093371110148506631e+00
1.456130322949414158e+01,3.630393964604275769e+00
1.458130894541297451e+01,3.196155045458460187e+00
1.460131466133180922e+01,3.902592195077544623e+00
1.462132037725064393e+01,3.734717448270612472e+00
1.464132609316947686e+01,3.961791601207718116e+00
1.466133180908831157e+01,4.353725005999392828e+00
1.468133752500714451e+01,3.635418540357425066e+00
1.470134324092597922e+01,4.375138333871754881e+00
1.472134895684481393e+01,3.227888978426324940e+00
1.474135467276364686e+01,3.369219872628649526e+00
1.476136038868247979e+01,3.807911625835251002e+00
1.478136610460131450e+01,3.582653811216038875e+00
1.480137182052014921e+01,4.122980074754320157e+00
1.482137753643898392e+01,4.326258765685815355e+00
1.484138325235781686e+01,3.659061715754115873e+00
1.486138896827664979e+01,4.348298140400925327e+00
1.488139468419548450e+01,3.826634153313666964e+00
1.490140040011431921e+01,3.233490101381728987e+00
1.492140611603315392e+01,3.710474327926527760e+00
1.494141183195198685e+01,4.206163429275488141e+00
1.496141754787081979e+01,4.647936913824064931e+00
1.498142326378965450e+01,3.372427363024248947e+00
1.500142897970848921e+01,3.527114534806640833e+00
1.502143469562732214e+01,3.637611166851236533e+00
1.504144041154615508e+01,4.222869039504690392e+00
1.506144612746498979e+01,3.763429060640831381e+00
1.508145184338382450e+01,3.853685067847938406e+00
1.510145755930265921e+01,4.292637766653235154e+00
1.512146327522149214e+01,4.035221651859128400e+00
1.514146899114032507e+01,3.896549466846193077e+00
1.516147470705915978e+01,4.208646765192892936e+00
1.518148042297799449e+01,4.064145815741738943e+00
1.520148613889682920e+01,3.228774533390678325e+00
1.522149185481566214e+01,4.441140951616911359e+00
1.524149757073449507e+01,3.901657812653454016e+00
1.526150328665332978e+01,3.880471625189622298e+00
1.528150900257216449e+01,4.238330198814656669e+00
1.530151471849099742e+01,4.470311896766219206e+00
1.532152043440983036e+01,3.310526455164094273e+00
1.534152615032866507e+01,4.427552864675038613e+00
1.536153186624749978e+01,3.692190926428136954e+00
1.538153758216633449e+01,4.165206935732637561e+00
1.540154329808516742e+01,4.794564472698812807e+00
1.542154901400400036e+01,4.772163555906353771e+00
1.544155472992283507e+01,4.411888738432797830e+00
1.546156044584166978e+01,4.234685107837544926e+00
1.548156616176050449e+01,4.284245442997307585e+00
1.550157187767933742e+01,4.259515424883018042e+00
1.552157759359817035e+01,4.875728179940560736e+00
1.554158330951700506e+01,4.697647937406392415e+00
1.556158902543583977e+01,5.092126612513012240e+00
1.558159474135467271e+01,4.897067233956408749e+00
1.560160045727350742e+01,5.475261127247154747e+00
1.562160617319234035e+01,5.599992222720540980e+00
1.564161188911117506e+01,5.063229969527915486e+00
1.566161760503000977e+01,5.650699654433449126e+00
1.568162332094884270e+01,5.942325875234628185e+00
1.570162903686767564e+01,6.361627288771153133e+00
1.572163475278651035e+01,5.173224283508274013e+00
1.574164046870534506e+01,6.126624290311323939e+00
1.576164618462417977e+01,5.938363636309813565e+00
1.578165190054301270e+01,6.340727597218301703e+00
1.580165761646184563e+01,5.513666596168878442e+00
1.582166333238068034e+01,6.647466393619211544e+00
1.584166904829951505e+01,6.597732553239445963e+00
1.586167476421834799e+01,6.876839769942250769e+00
1.588168048013718270e+01,7.725201684923419521e+00
1.590168619605601563e+01,8.205218911258182146e+00
1.592169191197485034e+01,7.586965651535672706e+00
1.594169762789368505e+01,7.909026577749764364e+00
1.596170334381251799e+01,7.490691183759174976e+00
1.598170905973135092e+01,7.743365908015995558e+00
1.600171477565018563e+01,8.060350770914338270e+00
1.602172049156902034e+01,9.217127469989225830e+00
1.604172620748785505e+01,8.755443360900272864e+00
1.606173192340668976e+01,9.376800983403139611e+00
1.608173763932552092e+01,9.194977175603813890e+00
1.610174335524435563e+01,8.966990075503687763e+00
1.612174907116319034e+01,9.767144536985647107e+00
1.614175478708202505e+01,9.197227520344329221e+00
1.616176050300085620e+01,1.046205281696088463e+01
1.618176621891969091e+01,1.043603149756753545e+01
1.620177193483852562e+01,1.146365391980063464e+01
1.622177765075736033e+01,1.105593516975201496e+01
1.624178336667619504e+01,1.193982734777038068e+01
1.626178908259502620e+01,1.130068588519390360e+01
1.628179479851386091e+01,1.303978933164828113e+01
1.630180051443269562e+01,1.319062623861020178e+01
1.632180623035153033e+01,1.312642776193761662e+01
1.634181194627036149e+01,1.387864357889981903e+01
1.636181766218919620e+01,1.365663531778782769e+01
1.638182337810803091e+01,1.366394504049213054e+01
1.640182909402686562e+01,1.487194421476917228e+01
1.642183480994570033e+01,1.449456903166091948e+01
1.644184052586453504e+01,1.484634080247573706e+01
1.646184624178336620e+01,1.623349153985270377e+01
1.648185195770220091e+01,1.711337898738244689e+01
1.650185767362103562e+01,1.672443408514052976e+01
1.652186338953986677e+01,1.684525393391025005e+01
1.654186910545870148e+01,1.724804846874564745e+01
1.656187482137753619e+01,1.783203643395977522e+01
1.658188053729637090e+01,1.905575830865399922e+01
1.660188625321520561e+01,1.999843864521734460e+01
1.662189196913404032e+01,1.953940986429741855e+01
1.664189768505287148e+01,1.973315332819053580e+01
1.666190340097170619e+01,2.107646368257463720e+01
1.668190911689054090e+01,2.197960280377532172e+01
1.670191483280937561e+01,2.272514796006920434e+01
1.672192054872820677e+01,2.367106488742578563e+01
1.674192626464704148e+01,2.396954706688531189e+01
1.676193198056587619e+01,2.408959409005382213e+01
1.678193769648471090e+01,2.429620899966424474e+01
1.680194341240354561e+01,2.579827332643037607e+01
1.682194912832238032e+01,2.664070701630927118e+01
1.684195484424121148e+01,2.757232132358134891e+01
1.686196056016004619e+01,2.700237361388889923e+01
1.688196627607888090e+01,2.891072368126173586e+01
1.690197199199771205e+01,2.880326690227388298e+01
1.692197770791654676e+01,2.978712563054180862e+01
1.694198342383538147e+01,3.008764095219305545e+01
1.696198913975421618e+01,2.996224759205426125e+01
1.698199485567305089e+01,3.052325848704887790e+01
1.700200057159188560e+01,3.123452373386207981e+01
1.702200628751071676e+01,3.076442343814191105e+01
1.704201200342955147e+01,3.224720382636630234e+01
1.706201771934838618e+01,3.183847193061010117e+01
1.708202343526722089e+01,3.145035002681879988e+01
1.710202915118605205e+01,3.098655530421027748e+01
1.712203486710488676e+01,2.990755304761049160e+01
1.714204058302372147e+01,2.991029798369967807e+01
1.716204629894255618e+01,2.802042296526098397e+01
1.718205201486139089e+01,2.734820438643863127e+01
1.720205773078022204e+01,2.667891555247288693e+01
1.722206344669905675e+01,2.590058813657703496e+01
1.724206916261789146e+01,2.405170711441379439e+01
1.726207487853672617e+01,2.315804319368318076e+01
1.728208059445555733e+01,2.136216737485808537e+01
1.730208631037439204e+01,2.041995611696890478e+01
1.732209202629322675e+01,1.875564067394070378e+01
1.734209774221206146e+01,1.825315601478664718e+01
1.736210345813089617e+01,1.707171065932710619e+01
1.738210917404973088e+01,1.595672510546567224e+01
1.740211488996856204e+01,1.563866873796976087e+01
1.742212060588739675e+01,1.536953377196857318e+01
1.744212632180623146e+01,1.502870552121484593e+01
1.746213203772506262e+01,1.361190077774598350e+01
1.748213775364389733e+01,1.366738217560903124e+01
1.750214346956273204e+01,1.417995625552040906e+01
1.752214918548156675e+01,1.355947733372646091e+01
1.754215490140040146e+01,1.212903948835309009e+01
1.756216061731923617e+01,1.217107625042837959e+01
1.758216633323806732e+01,1.276497776273260953e+01
1.760217204915690203e+01,1.182151877424084319e+01
1.762217776507573674e+01,1.140265474258556466e+01
1.764218348099457145e+01,1.126198504696061775e+01
1.766218919691340261e+01,1.008427520134484645e+01
1.768219491283223732e+01,1.043912646330274185e+01
1.770220062875107203e+01,1.018496556402304165e+01
1.772220634466990674e+01,9.802280088718518414e+00
1.774221206058874145e+01,9.398472175106366677e+00
1.776221777650757616e+01,8.650483754127092695e+00
1.778222349242640732e+01,7.767541578809097125e+00
1.780222920834524203e+01,8.169711322553302679e+00
1.782223492426407674e+01,7.941082785121467147e+00
1.784224064018290790e+01,7.954165761871166751e+00
1.786224635610174261e+01,7.091199340336435952e+00
1.788225207202057732e+01,7.392932739015886767e+00
1.790225778793941203e+01,6.749100535085096553e+00
1.792226350385824674e+01,5.958583229050622876e+00
1.794226921977708145e+01,6.946625267588175667e+00
1.796227493569591260e+01,7.163093815018680033e+00
