angle,intensity
1.000000000000000000e+01,9.903908917457646055e+01
1.002000571591883471e+01,9.939901749141250775e+01
1.004001143183766764e+01,9.920525944517220296e+01
1.006001714775650235e+01,9.880042483621210181e+01
1.008002286367533529e+01,9.872710973002567414e+01
1.010002857959417000e+01,9.822959319381158139e+01
1.012003429551300293e+01,9.589515315220205594e+01
1.014004001143183764e+01,9.507507358333492675e+01
1.016004572735067235e+01,9.271410361556863222e+01
1.018005144326950528e+01,9.244870611734089039e+01
1.020005715918833999e+01,8.902245128385051487e+01
1.022006287510717293e+01,8.696958205424994048e+01
1.024006859102600764e+01,8.381122088202567966e+01
1.026007430694484057e+01,8.066877769765974904e+01
1.028008002286367528e+01,7.689083154979016399e+01
1.030008573878250999e+01,7.317220846367385434e+01
1.032009145470134293e+01,6.955207205126933445e+01
1.034009717062017764e+01,6.467213460841514916e+01
1.036010288653901057e+01,6.076960412033128023e+01
1.038010860245784528e+01,5.703468140614481285e+01
1.040011431837667999e+01,5.361987613680778963e+01
1.042012003429551292e+01,4.956028735064075619e+01
1.044012575021434763e+01,4.543711817862467228e+01
1.046013146613318057e+01,4.359316785903177305e+01
1.048013718205201528e+01,4.063325895028422963e+01
1.050014289797084821e+01,3.830785152011482353e+01
1.052014861388968292e+01,3.626052601233806172e+01
1.054015432980851585e+01,3.490885630742119616e+01
1.056016004572735056e+01,3.318317451105424709e+01
1.058016576164618527e+01,3.239558918329876036e+01
1.060017147756501821e+01,3.018412054263517064e+01
1.062017719348385292e+01,3.001834826244308374e+01
1.064018290940268585e+01,2.978097778098569037e+01
1.066018862532152056e+01,2.945072884194746621e+01
1.068019434124035527e+01,2.882135135392257652e+01
1.070020005715918820e+01,2.842899860756962127e+01
1.072020577307802292e+01,2.823598167872247799e+01
1.074021148899685585e+01,2.768293277475753911e+01
1.076021720491569056e+01,2.777585786602438489e+01
1.078022292083452349e+01,2.837361633587325116e+01
1.080022863675335820e+01,2.855191185023806355e+01
1.082023435267219291e+01,2.884074254834430917e+01
1.084024006859102585e+01,2.861782776683979534e+01
1.086024578450986056e+01,2.852855132505277069e+01
1.088025150042869349e+01,2.928373671688009239e+01
1.090025721634752820e+01,2.876146529383956008e+01
1.092026293226636113e+01,2.957686939997700293e+01
1.094026864818519584e+01,2.981239058918047391e+01
1.096027436410403055e+01,3.001372966756627392e+01
1.098028008002286349e+01,3.022813651076464225e+01
1.100028579594169820e+01,2.985936003658401106e+01
1.102029151186053113e+01,3.073547909861786920e+01
1.104029722777936584e+01,3.148073378346159146e+01
1.106030294369819877e+01,3.184773639224120956e+01
1.108030865961703348e+01,3.193301695784460748e+01
1.110031437553586819e+01,3.197790568815477030e+01
1.112032009145470113e+01,3.257782656318039471e+01
1.114032580737353584e+01,3.430114510783135984e+01
1.116033152329236877e+01,3.450428335097559085e+01
1.118033723921120348e+01,3.454463988582563161e+01
1.120034295513003642e+01,3.531884519613736018e+01
1.122034867104887113e+01,3.584315240618295206e+01
1.124035438696770584e+01,3.715519265661545489e+01
1.126036010288653877e+01,3.683664098970032796e+01
1.128036581880537348e+01,3.731919966755960161e+01
1.130037153472420641e+01,3.788350122329545400e+01
1.132037725064304112e+01,3.909145755426925462e+01
1.134038296656187583e+01,3.985189608855929322e+01
1.136038868248070877e+01,4.043966790583500881e+01
1.138039439839954348e+01,4.176495884421143501e+01
1.140040011431837641e+01,4.136588087841509065e+01
1.142040583023721112e+01,4.249545543950989668e+01
1.144041154615604405e+01,4.309361173472015594e+01
1.146041726207487876e+01,4.418155788104417780e+01
1.148042297799371170e+01,4.428619021138145939e+01
1.150042869391254641e+01,4.504089317395701642e+01
1.152043440983138112e+01,4.547044511448508786e+01
1.154044012575021405e+01,4.574601920993998760e+01
1.156044584166904876e+01,4.657264021222039929e+01
1.158045155758788169e+01,4.656839370290743574e+01
1.160045727350671640e+01,4.694015842281675788e+01
1.162046298942555111e+01,4.704383932654021550e+01
1.164046870534438405e+01,4.731783481094402077e+01
1.166047442126321876e+01,4.804920125719828405e+01
1.168048013718205169e+01,4.866878958705163427e+01
1.170048585310088640e+01,4.911872481741076513e+01
1.172049156901971934e+01,4.829918152602665771e+01
1.174049728493855405e+01,4.847359070345426346e+01
1.176050300085738698e+01,4.738559084569608615e+01
1.178050871677622169e+01,4.714759122926467683e+01
1.180051443269505640e+01,4.669606550849051985e+01
1.182052014861388933e+01,4.652070275244899733e+01
1.184052586453272404e+01,4.468989034576344466e+01
1.186053158045155698e+01,4.452992416908209350e+01
1.188053729637039169e+01,4.263342905621378520e+01
1.190054301228922640e+01,4.226925743878746289e+01
1.192054872820805933e+01,4.072989276574798367e+01
1.194055444412689404e+01,3.798301980740819772e+01
1.196056016004572697e+01,3.559230711447480644e+01
1.198056587596456168e+01,3.456995482948583032e+01
1.200057159188339639e+01,3.262299305370720504e+01
1.202057730780222933e+01,2.995461447867029392e+01
1.204058302372106226e+01,2.721416536538792030e+01
1.206058873963989697e+01,2.585120253361347409e+01
1.208059445555873168e+01,2.257834624398469714e+01
1.210060017147756461e+01,2.182032184495029270e+01
1.212060588739639932e+01,1.970434610154409683e+01
1.214061160331523226e+01,1.770238680926362562e+01
1.216061731923406697e+01,1.646939688786419609e+01
1.218062303515290168e+01,1.488464729190392255e+01
1.220062875107173461e+01,1.359170128941334355e+01
1.222063446699056932e+01,1.266305405682192919e+01
1.224064018290940226e+01,1.148627658339477264e+01
1.226064589882823697e+01,1.154178318311396367e+01
1.228065161474707168e+01,1.102847196943752195e+01
1.230065733066590461e+01,9.528774587864123902e+00
1.232066304658473754e+01,9.454562038639428678e+00
1.234066876250357225e+01,8.849181518113521605e+00
1.236067447842240696e+01,9.338517866667896072e+00
1.238068019434123990e+01,8.859824998197504797e+00
1.240068591026007461e+01,8.440061996387012044e+00
1.242069162617890754e+01,8.166282963161023645e+00
1.244069734209774225e+01,7.986534759993737964e+00
1.246070305801657696e+01,7.692906812094664204e+00
1.248070877393540989e+01,7.477231553289440669e+00
1.250071448985424460e+01,7.054397028699761485e+00
1.252072020577307754e+01,7.068231631867089249e+00
1.254072592169191225e+01,8.035851856811763838e+00
1.256073163761074696e+01,6.689183820691088300e+00
1.258073735352957989e+01,7.622460681517180703e+00
1.260074306944841460e+01,7.179382825010513614e+00
1.262074878536724754e+01,7.099474379092766796e+00
1.264075450128608225e+01,7.834387646193937904e+00
1.266076021720491518e+01,7.194597838776111587e+00
1.268076593312374989e+01,7.336747397581725672e+00
1.270077164904258282e+01,7.875556169183642652e+00
1.272077736496141753e+01,7.007048640953703611e+00
1.274078308088025224e+01,7.160495418008225421e+00
1.276078879679908518e+01,7.107169361514237949e+00
1.278079451271791989e+01,6.576320520280932946e+00
1.280080022863675282e+01,6.569081806969693460e+00
1.282080594455558753e+01,6.713938286721521820e+00
1.284081166047442224e+01,7.774804310416309150e+00
1.286081737639325517e+01,6.297167864288429229e+00
1.288082309231208988e+01,6.936148053148602166e+00
1.290082880823092282e+01,6.731238508546624644e+00
1.292083452414975753e+01,6.925257343644140917e+00
1.294084024006859224e+01,7.116478295924675734e+00
1.296084595598742517e+01,6.706482014128423152e+00
1.298085167190625810e+01,6.783768830346051715e+00
1.300085738782509281e+01,6.825594596356716615e+00
1.302086310374392752e+01,6.920720127980110270e+00
1.304086881966276046e+01,7.073923964595071112e+00
1.306087453558159517e+01,7.186530520698072522e+00
1.308088025150042810e+01,5.865067643374175077e+00
1.310088596741926281e+01,6.036159548860711155e+00
1.312089168333809752e+01,5.669972325186376061e+00
1.314089739925693046e+01,6.199111841135751533e+00
1.316090311517576517e+01,6.150280160345419134e+00
1.318090883109459810e+01,5.929921082850848180e+00
1.320091454701343281e+01,6.030793518023614297e+00
1.322092026293226752e+01,5.761880908454307004e+00
1.324092597885110045e+01,4.768136321304277558e+00
1.326093169476993339e+01,6.255004284827630379e+00
1.328093741068876810e+01,5.010345041567592084e+00
1.330094312660760281e+01,5.242489754645525579e+00
1.332094884252643574e+01,4.976611322318271746e+00
1.334095455844527045e+01,4.804668890659737457e+00
1.336096027436410338e+01,5.451113601088576566e+00
1.338096599028293809e+01,5.320987039197691004e+00
1.340097170620177280e+01,4.679507913567296562e+00
1.342097742212060574e+01,4.939724919492306299e+00
1.344098313803944045e+01,4.389098141877926018e+00
1.346098885395827338e+01,5.158515348576729664e+00
1.348099456987710809e+01,4.747274472355906383e+00
1.350100028579594280e+01,3.851388308437444508e+00
1.352100600171477573e+01,4.130005604977096567e+00
1.354101171763361044e+01,4.605024425371803787e+00
1.356101743355244338e+01,3.977522159169876836e+00
1.358102314947127809e+01,4.363375600760612372e+00
1.360102886539011102e+01,4.004133496671951065e+00
1.362103458130894573e+01,4.359535128520031222e+00
1.364104029722777867e+01,4.611576840431024671e+00
1.366104601314661338e+01,4.433792042360034991e+00
1.368105172906544809e+01,4.074924587853431035e+00
1.370105744498428102e+01,4.810812923672207475e+00
1.372106316090311573e+01,4.775116790638820774e+00
1.374106887682194866e+01,4.309161126123717267e+00
1.376107459274078337e+01,4.380523394836218998e+00
1.378108030865961808e+01,4.460163338352179707e+00
1.380108602457845102e+01,4.394452000303965100e+00
1.382109174049728573e+01,4.302547197534739354e+00
1.384109745641611866e+01,3.398795717715565878e+00
1.386110317233495337e+01,4.581084524216416654e+00
1.388110888825378808e+01,3.551750814828388947e+00
1.390111460417262101e+01,3.590154100176991214e+00
1.392112032009145395e+01,3.298993500203891927e+00
1.394112603601028866e+01,4.348114473595474649e+00
1.396113175192912337e+01,4.431909938658781911e+00
1.398113746784795630e+01,4.134211305634517331e+00
1.400114318376679101e+01,4.811811331797116509e+00
1.402114889968562395e+01,4.264717505473285541e+00
1.404115461560445866e+01,4.092935589402738827e+00
1.406116033152329337e+01,4.191462315022805640e+00
1.408116604744212630e+01,3.927628534759270096e+00
1.410117176336095923e+01,4.550593173530736557e+00
1.412117747927979394e+01,3.777962573077722208e+00
1.414118319519862865e+01,3.719067759607377788e+00
1.416118891111746336e+01,4.404401667382582986e+00
1.418119462703629630e+01,4.315249906571654748e+00
1.420120034295512923e+01,4.261461845144430605e+00
1.422120605887396394e+01,4.000388756340015561e+00
1.424121177479279865e+01,4.143393769298253204e+00
1.426121749071163336e+01,3.817198627570982161e+00
1.428122320663046629e+01,4.117639659871274560e+00
1.430122892254929923e+01,4.153203975294723627e+00
1.432123463846813394e+01,4.729108941458830984e+00
1.434124035438696865e+01,3.795127326773078735e+00
1.436124607030580158e+01,4.054441536682291236e+00
1.438125178622463629e+01,4.470148207049143174e+00
1.440125750214346922e+01,3.926255036202698001e+00
1.442126321806230393e+01,4.243983027717240120e+00
1.444126893398113864e+01,3.938546488144454738e+00
1.446127464989997158e+01,4.463146290013079387e+00
1.448128036581880451e+01,4.287395747602234408e+00
1.450128608173763922e+01,4.582404143316961331e+00
1.452129179765647393e+01,4.095555274976505622e+00
1.454129751357530864e+01,4.271631141958462052e+00
1.456130322949414158e+01,3.528119321967576383e+00
1.458130894541297451e+01,4.162732205924522866e+00
1.460131466133180922e+01,4.412671689593134161e+00
1.462132037725064393e+01,4.370130493186964671e+00
1.464132609316947686e+01,4.814872614117698291e+00
1.466133180908831157e+01,4.639838121595296627e+00
1.468133752500714451e+01,3.891254732573127484e+00
1.470134324092597922e+01,4.529680578710527428e+00
1.472134895684481393e+01,4.851315801604009437e+00
1.474135467276364686e+01,5.220539343063222759e+00
1.476136038868247979e+01,4.653957395715525358e+00
1.478136610460131450e+01,5.314984529141141500e+00
1.480137182052014921e+01,4.237323161406116867e+00
1.482137753643898392e+01,5.592128636063806724e+00
1.484138325235781686e+01,4.950319611939689501e+00
1.486138896827664979e+01,4.828437945799031183e+00
1.488139468419548450e+01,5.085376351300619824e+00
1.490140040011431921e+01,4.868872607382760620e+00
1.492140611603315392e+01,5.014280944766786874e+00
1.494141183195198685e+01,5.312143607338693840e+00
1.496141754787081979e+01,4.586685156838555599e+00
1.498142326378965450e+01,5.304860190363008599e+00
1.500142897970848921e+01,6.241747051593288020e+00
1.502143469562732214e+01,4.943619587189501452e+00
1.504144041154615508e+01,5.118618311635558804e+00
1.506144612746498979e+01,5.471602530084039628e+00
1.508145184338382450e+01,6.050262719617517604e+00
1.510145755930265921e+01,5.538745504335432557e+00
1.512146327522149214e+01,5.452068982598078151e+00
1.514146899114032507e+01,5.971609672382356848e+00
1.516147470705915978e+01,6.289455759338284935e+00
1.518148042297799449e+01,6.423935356972597432e+00
1.520148613889682920e+01,6.497808521872673992e+00
1.522149185481566214e+01,7.343926801470995080e+00
1.524149757073449507e+01,7.691713836030395157e+00
1.526150328665332978e+01,6.977684769126432762e+00
1.528150900257216449e+01,7.626092376340611878e+00
1.530151471849099742e+01,7.920864470413652825e+00
1.532152043440983036e+01,7.815457518740204890e+00
1.534152615032866507e+01,7.188349195226237498e+00
1.536153186624749978e+01,7.158020679528785735e+00
1.538153758216633449e+01,7.908882944507139356e+00
1.540154329808516742e+01,7.629951271253775147e+00
1.542154901400400036e+01,8.835877103378319219e+00
1.544155472992283507e+01,8.259936991300476095e+00
1.546156044584166978e+01,9.459524843040803432e+00
1.548156616176050449e+01,8.856434084805039575e+00
1.550157187767933742e+01,9.609271488529619987e+00
1.552157759359817035e+01,9.586354329042968914e+00
1.554158330951700506e+01,9.069298734016092212e+00
1.556158902543583977e+01,9.935403933147284761e+00
1.558159474135467271e+01,9.829589505066309130e+00
1.560160045727350742e+01,1.022856349737643455e+01
1.562160617319234035e+01,1.057646248046323834e+01
1.564161188911117506e+01,1.111566201620031080e+01
1.566161760503000977e+01,1.050075493819308114e+01
1.568162332094884270e+01,1.211422285295926571e+01
1.570162903686767564e+01,1.191949844618592280e+01
1.572163475278651035e+01,1.301943018465097168e+01
1.574164046870534506e+01,1.230872605574250755e+01
1.576164618462417977e+01,1.223626057364803188e+01
1.578165190054301270e+01,1.294831774745039255e+01
1.580165761646184563e+01,1.310532822228844552e+01
1.582166333238068034e+01,1.443872454689970652e+01
1.584166904829951505e+01,1.425111078111709162e+01
1.586167476421834799e+01,1.489939513347833611e+01
1.588168048013718270e+01,1.538923724898029377e+01
1.590168619605601563e+01,1.481613780668435254e+01
1.592169191197485034e+01,1.528540708012551619e+01
1.594169762789368505e+01,1.661678401389093906e+01
1.596170334381251799e+01,1.604788347432167228e+01
1.598170905973135092e+01,1.663643147323560356e+01
1.600171477565018563e+01,1.709872898052704926e+01
1.602172049156902034e+01,1.819945078463791077e+01
1.604172620748785505e+01,1.857470630867955208e+01
1.606173192340668976e+01,1.908447955613378966e+01
1.608173763932552092e+01,2.023322563972990551e+01
1.610174335524435563e+01,1.980135574189917236e+01
1.612174907116319034e+01,2.053155936267069848e+01
1.614175478708202505e+01,2.111815721666832957e+01
1.616176050300085620e+01,2.195385295915556156e+01
1.618176621891969091e+01,2.234069725716960164e+01
1.620177193483852562e+01,2.257736968203458616e+01
1.622177765075736033e+01,2.367682754510379084e+01
1.624178336667619504e+01,2.416197578461792972e+01
1.626178908259502620e+01,2.463434916718271239e+01
1.628179479851386091e+01,2.523409092573314183e+01
1.630180051443269562e+01,2.584084770553348775e+01
1.632180623035153033e+01,2.593251329897484680e+01
1.634181194627036149e+01,2.733774004686287995e+01
1.636181766218919620e+01,2.734929139418648347e+01
1.638182337810803091e+01,2.882788827619591387e+01
1.640182909402686562e+01,2.832180423831042759e+01
1.642183480994570033e+01,2.922513798326824386e+01
1.644184052586453504e+01,2.997124026414508791e+01
1.646184624178336620e+01,2.997646458658199009e+01
1.648185195770220091e+01,3.101577339633662334e+01
1.650185767362103562e+01,3.055135494551762321e+01
1.652186338953986677e+01,3.126468949246669382e+01
1.654186910545870148e+01,3.077214667001111081e+01
1.656187482137753619e+01,3.140224828711747307e+01
1.658188053729637090e+01,3.086702009184278950e+01
1.660188625321520561e+01,3.092556971998892124e+01
1.662189196913404032e+01,3.015460983778039861e+01
1.664189768505287148e+01,2.988580950845395279e+01
1.666190340097170619e+01,2.909600615954741443e+01
1.668190911689054090e+01,2.758036721927222601e+01
1.670191483280937561e+01,2.688620409216020235e+01
1.672192054872820677e+01,2.632052344871724614e+01
1.674192626464704148e+01,2.470442741238745299e+01
1.676193198056587619e+01,2.360523114305177472e+01
1.678193769648471090e+01,2.223752750576082349e+01
1.680194341240354561e+01,2.055890361218642326e+01
1.682194912832238032e+01,1.968709857175462474e+01
1.684195484424121148e+01,1.870781959087132762e+01
1.686196056016004619e+01,1.671625209308007598e+01
1.688196627607888090e+01,1.595261482405967968e+01
1.690197199199771205e+01,1.435152388446493177e+01
1.692197770791654676e+01,1.370827132052684583e+01
1.694198342383538147e+01,1.269427196260577517e+01
1.696198913975421618e+01,1.222718215743882908e+01
1.698199485567305089e+01,1.083371958388620904e+01
1.700200057159188560e+01,1.026675475955389061e+01
1.702200628751071676e+01,9.718623878764294233e+00
1.704201200342955147e+01,9.088960588243576666e+00
1.706201771934838618e+01,8.761258281010848137e+00
1.708202343526722089e+01,8.819127099575300832e+00
1.710202915118605205e+01,8.639776000316148341e+00
1.712203486710488676e+01,7.336860740337442621e+00
1.714204058302372147e+01,8.091532430138837384e+00
1.716204629894255618e+01,7.564883416138597383e+00
1.718205201486139089e+01,7.605387950559522103e+00
1.720205773078022204e+01,7.832217969360616650e+00
1.722206344669905675e+01,7.989191773488923509e+00
1.724206916261789146e+01,7.152946904228494773e+00
1.726207487853672617e+01,7.706986120125664641e+00
1.728208059445555733e+01,6.698467230358817304e+00
1.730208631037439204e+01,6.712966357641903414e+00
1.732209202629322675e+01,7.039536161808246817e+00
1.734209774221206146e+01,6.624798915923590492e+00
1.736210345813089617e+01,6.469005108097839241e+00
1.738210917404973088e+01,7.193485946930779917e+00
1.740211488996856204e+01,6.858258049980088700e+00
1.742212060588739675e+01,7.440702244740688087e+00
1.744212632180623146e+01,7.022406373005475544e+00
1.746213203772506262e+01,6.900831710155472365e+00
1.748213775364389733e+01,7.247611840698347407e+00
1.750214346956273204e+01,6.847004411356828690e+00
1.752214918548156675e+01,7.289136796640453220e+00
1.754215490140040146e+01,8.096734130730776968e+00
1.756216061731923617e+01,8.160003221959893693e+00
1.758216633323806732e+01,7.847253057462660664e+00
1.760217204915690203e+01,8.332896570126653302e+00
1.762217776507573674e+01,7.141160594689861085e+00
1.764218348099457145e+01,7.615331000089074820e+00
1.766218919691340261e+01,7.942063088365980406e+00
1.768219491283223732e+01,8.038660958603639273e+00
1.770220062875107203e+01,7.108263946492076713e+00
1.772220634466990674e+01,8.094594608292736027e+00
1.774221206058874145e+01,7.426275174830674786e+00
1.776221777650757616e+01,6.907449632935160899e+00
1.778222349242640732e+01,7.864557845891502197e+00
1.780222920834524203e+01,7.045191262467822568e+00
1.782223492426407674e+01,7.662514179729090102e+00
1.784224064018290790e+01,6.423464474910213440e+00
1.786224635610174261e+01,6.249319077228284058e+00
1.788225207202057732e+01,6.972868927744311662e+00
1.790225778793941203e+01,6.298086281329023706e+00
1.792226350385824674e+01,6.477302311036799765e+00
1.794226921977708145e+01,6.143439304491440822e+00
1.796227493569591260e+01,6.121041304948115602e+00
