angle,intensity
1.000000000000000000e+01,9.136195865733806443e+01
1.002000571591883471e+01,9.289214050787879273e+01
1.004001143183766764e+01,9.476087746467315753e+01
1.006001714775650235e+01,9.524830577784541674e+01
1.008002286367533529e+01,9.697299505096898997e+01
1.010002857959417000e+01,9.715471515867406538e+01
1.012003429551300293e+01,9.813190571201099033e+01
1.014004001143183764e+01,9.895809167296920350e+01
1.016004572735067235e+01,9.929594377492702506e+01
1.018005144326950528e+01,9.954421454509009948e+01
1.020005715918833999e+01,9.890212913673568096e+01
1.022006287510717293e+01,9.901081221636820828e+01
1.024006859102600764e+01,9.810424352463300579e+01
1.026007430694484057e+01,9.712780304984417512e+01
1.028008002286367528e+01,9.599992903304269021e+01
1.030008573878250999e+01,9.561076259750031170e+01
1.032009145470134293e+01,9.330418562753186507e+01
1.034009717062017764e+01,9.050120053537281706e+01
1.036010288653901057e+01,8.844901510649907550e+01
1.038010860245784528e+01,8.508476987658130497e+01
1.040011431837667999e+01,8.234385080184608796e+01
1.042012003429551292e+01,7.842610852757090356e+01
1.044012575021434763e+01,7.470824928999881820e+01
1.046013146613318057e+01,6.984613056762702854e+01
1.048013718205201528e+01,6.610835696601593270e+01
1.050014289797084821e+01,6.237526793525599800e+01
1.052014861388968292e+01,5.821378656637492099e+01
1.054015432980851585e+01,5.469837816523331497e+01
1.056016004572735056e+01,5.067751118203807437e+01
1.058016576164618527e+01,4.761291078578264546e+01
1.060017147756501821e+01,4.411899065821602051e+01
1.062017719348385292e+01,4.182402598482750022e+01
1.064018290940268585e+01,3.889397679184503431e+01
1.066018862532152056e+01,3.627333010737157792e+01
1.068019434124035527e+01,3.491349657185681821e+01
1.070020005715918820e+01,3.285655151401995511e+01
1.072020577307802292e+01,3.156024590884809911e+01
1.074021148899685585e+01,2.989947576511518079e+01
1.076021720491569056e+01,2.811874086421501318e+01
1.078022292083452349e+01,2.747005857689827835e+01
1.080022863675335820e+01,2.690019430907718245e+01
1.082023435267219291e+01,2.570105349293662655e+01
1.084024006859102585e+01,2.650586258088809899e+01
1.086024578450986056e+01,2.554906384778384165e+01
1.088025150042869349e+01,2.539725284873258460e+01
1.090025721634752820e+01,2.562106802594781385e+01
1.092026293226636113e+01,2.580909825868209850e+01
1.094026864818519584e+01,2.486999409509253667e+01
1.096027436410403055e+01,2.638832692676497160e+01
1.098028008002286349e+01,2.625958394503107485e+01
1.100028579594169820e+01,2.704161401805381004e+01
1.102029151186053113e+01,2.673863682398772568e+01
1.104029722777936584e+01,2.633365081478199698e+01
1.106030294369819877e+01,2.647775608069763820e+01
1.108030865961703348e+01,2.758629481451654186e+01
1.110031437553586819e+01,2.775698029275461209e+01
1.112032009145470113e+01,2.806093308665076336e+01
1.114032580737353584e+01,2.893857010573010768e+01
1.116033152329236877e+01,2.954244726451464231e+01
1.118033723921120348e+01,2.920007653593591357e+01
1.120034295513003642e+01,3.016082698476448343e+01
1.122034867104887113e+01,3.108546378915935549e+01
1.124035438696770584e+01,3.130056492042386651e+01
1.126036010288653877e+01,3.210082705787056767e+01
1.128036581880537348e+01,3.278163826359683242e+01
1.130037153472420641e+01,3.272070830515183815e+01
1.132037725064304112e+01,3.284481998446500484e+01
1.134038296656187583e+01,3.424506540441622349e+01
1.136038868248070877e+01,3.537754713840249110e+01
1.138039439839954348e+01,3.598640100356509208e+01
1.140040011431837641e+01,3.572763801128239436e+01
1.142040583023721112e+01,3.711563166763016852e+01
1.144041154615604405e+01,3.756268327271028795e+01
1.146041726207487876e+01,3.755303539788067724e+01
1.148042297799371170e+01,3.884576619102411144e+01
1.150042869391254641e+01,3.900766827706453199e+01
1.152043440983138112e+01,4.020938728343502788e+01
1.154044012575021405e+01,4.121426077088940332e+01
1.156044584166904876e+01,4.094817557833480492e+01
1.158045155758788169e+01,4.203282679110608200e+01
1.160045727350671640e+01,4.254462173738497199e+01
1.162046298942555111e+01,4.317937025487762526e+01
1.164046870534438405e+01,4.370527314059354040e+01
1.166047442126321876e+01,4.399550446627111455e+01
1.168048013718205169e+01,4.457217831364530980e+01
1.170048585310088640e+01,4.428370023282108292e+01
1.172049156901971934e+01,4.476111202646182363e+01
1.174049728493855405e+01,4.455173321155645993e+01
1.176050300085738698e+01,4.422285206296906779e+01
1.178050871677622169e+01,4.334707833921544307e+01
1.180051443269505640e+01,4.368847317818462272e+01
1.182052014861388933e+01,4.300844974865087522e+01
1.184052586453272404e+01,4.215957508089222472e+01
1.186053158045155698e+01,4.236469573611889672e+01
1.188053729637039169e+01,4.081706718741511253e+01
1.190054301228922640e+01,4.011488183116095740e+01
1.192054872820805933e+01,3.811247660296196216e+01
1.194055444412689404e+01,3.702728738649938123e+01
1.196056016004572697e+01,3.455039297911610419e+01
1.198056587596456168e+01,3.260669697124628641e+01
1.200057159188339639e+01,3.097512266826816330e+01
1.202057730780222933e+01,2.945785796825497727e+01
1.204058302372106226e+01,2.808398492005934699e+01
1.206058873963989697e+01,2.636631239060583454e+01
1.208059445555873168e+01,2.481838133248266587e+01
1.210060017147756461e+01,2.335082712513077752e+01
1.212060588739639932e+01,2.148275846386655985e+01
1.214061160331523226e+01,2.126601954471622591e+01
1.216061731923406697e+01,1.969208141645946597e+01
1.218062303515290168e+01,1.765090332560134812e+01
1.220062875107173461e+01,1.628736276633473423e+01
1.222063446699056932e+01,1.579020762989884830e+01
1.224064018290940226e+01,1.562835300382191761e+01
1.226064589882823697e+01,1.373365361107841309e+01
1.228065161474707168e+01,1.349558505021374089e+01
1.230065733066590461e+01,1.167491562131672111e+01
1.232066304658473754e+01,1.186801812566014291e+01
1.234066876250357225e+01,1.124265500849447363e+01
1.236067447842240696e+01,9.831915879162551164e+00
1.238068019434123990e+01,9.047078915155823964e+00
1.240068591026007461e+01,8.064929247308530336e+00
1.242069162617890754e+01,7.419603552360827692e+00
1.244069734209774225e+01,7.167292915813503917e+00
1.246070305801657696e+01,6.350116067368584361e+00
1.248070877393540989e+01,6.729203871631559863e+00
1.250071448985424460e+01,5.599977248126737805e+00
1.252072020577307754e+01,5.532465776808407121e+00
1.254072592169191225e+01,4.925813592677092068e+00
1.256073163761074696e+01,4.990422005256470506e+00
1.258073735352957989e+01,4.862830383133794676e+00
1.260074306944841460e+01,3.650660272716406141e+00
1.262074878536724754e+01,3.826524589366105289e+00
1.264075450128608225e+01,3.758518742596435480e+00
1.266076021720491518e+01,4.620084476984542832e+00
1.268076593312374989e+01,3.945392128460254000e+00
1.270077164904258282e+01,3.847997023190427690e+00
1.272077736496141753e+01,4.196881317117109766e+00
1.274078308088025224e+01,3.189020217046882877e+00
1.276078879679908518e+01,3.724697425138685514e+00
1.278079451271791989e+01,3.357752554781937349e+00
1.280080022863675282e+01,3.430967624357687207e+00
1.282080594455558753e+01,3.299303985238434045e+00
1.284081166047442224e+01,3.438722702195791125e+00
1.286081737639325517e+01,2.714003032049239650e+00
1.288082309231208988e+01,2.980359852727875847e+00
1.290082880823092282e+01,3.516098933647306524e+00
1.292083452414975753e+01,2.421581064664990457e+00
1.294084024006859224e+01,3.288915288959795902e+00
1.296084595598742517e+01,2.797252531294780908e+00
1.298085167190625810e+01,2.735082342908598640e+00
1.300085738782509281e+01,3.336268174114308760e+00
1.302086310374392752e+01,3.631366746136971191e+00
1.304086881966276046e+01,2.908299491956872984e+00
1.306087453558159517e+01,2.495242130873134290e+00
1.308088025150042810e+01,2.922957703750346248e+00
1.310088596741926281e+01,3.028754399559988819e+00
1.312089168333809752e+01,2.771836730526544557e+00
1.314089739925693046e+01,3.258049150973513886e+00
1.316090311517576517e+01,2.980165639881017903e+00
1.318090883109459810e+01,3.165970433682337770e+00
1.320091454701343281e+01,2.841735819908644878e+00
1.322092026293226752e+01,2.545730114565992075e+00
1.324092597885110045e+01,2.300394431639434245e+00
1.326093169476993339e+01,2.159708425154652112e+00
1.328093741068876810e+01,2.788145756317829793e+00
1.330094312660760281e+01,2.733457567122872245e+00
1.332094884252643574e+01,2.805069630053405039e+00
1.334095455844527045e+01,3.210320094643333455e+00
1.336096027436410338e+01,2.769308738310789053e+00
1.338096599028293809e+01,2.738740879239295545e+00
1.340097170620177280e+01,3.131200202266533950e+00
1.342097742212060574e+01,2.473008298441199848e+00
1.344098313803944045e+01,2.345769507264556353e+00
1.346098885395827338e+01,3.024844759334207378e+00
1.348099456987710809e+01,2.614982496061251105e+00
1.350100028579594280e+01,2.661804051038505481e+00
1.352100600171477573e+01,3.045119662883043699e+00
1.354101171763361044e+01,2.747534342312814459e+00
1.356101743355244338e+01,3.225465493365541114e+00
1.358102314947127809e+01,3.009842770472823226e+00
1.360102886539011102e+01,3.078956489180227685e+00
1.362103458130894573e+01,2.470896320599897056e+00
1.364104029722777867e+01,2.184663576931835660e+00
1.366104601314661338e+01,2.744245614469659422e+00
1.368105172906544809e+01,2.601702166350301493e+00
1.370105744498428102e+01,2.523644167435522334e+00
1.372106316090311573e+01,2.881760734796539491e+00
1.374106887682194866e+01,2.481162721583830333e+00
1.376107459274078337e+01,3.507980322935044804e+00
1.378108030865961808e+01,2.489945543352357404e+00
1.380108602457845102e+01,3.118356474885193741e+00
1.382109174049728573e+01,2.496828489844407528e+00
1.384109745641611866e+01,2.708819091266928769e+00
1.386110317233495337e+01,2.327224763411647412e+00
1.388110888825378808e+01,3.425535059885284284e+00
1.390111460417262101e+01,2.257653029679684842e+00
1.392112032009145395e+01,2.868052326854069634e+00
1.394112603601028866e+01,2.985660223688133996e+00
1.396113175192912337e+01,2.791571526127129221e+00
1.398113746784795630e+01,3.490173977700066210e+00
1.400114318376679101e+01,2.839416454329757755e+00
1.402114889968562395e+01,2.703734105180028990e+00
1.404115461560445866e+01,2.245920453429913088e+00
1.406116033152329337e+01,3.414148827245076845e+00
1.408116604744212630e+01,2.723188784702728960e+00
1.410117176336095923e+01,2.417033904021671287e+00
1.412117747927979394e+01,2.600288578564789344e+00
1.414118319519862865e+01,2.995251310661906530e+00
1.416118891111746336e+01,3.399342493118524100e+00
1.418119462703629630e+01,2.955174336292277548e+00
1.420120034295512923e+01,2.839114448062468377e+00
1.422120605887396394e+01,2.760038213733584378e+00
1.424121177479279865e+01,3.147372080951635454e+00
1.426121749071163336e+01,3.300755246168582513e+00
1.428122320663046629e+01,3.135930117146906948e+00
1.430122892254929923e+01,3.373482917814036419e+00
1.432123463846813394e+01,2.306183630446711597e+00
1.434124035438696865e+01,3.076371770900064195e+00
1.436124607030580158e+01,2.899661815143476318e+00
1.438125178622463629e+01,2.830351864707786547e+00
1.440125750214346922e+01,2.273721816442909383e+00
1.442126321806230393e+01,3.497847567031893590e+00
1.444126893398113864e+01,2.900659253908877133e+00
1.446127464989997158e+01,2.662968338671184210e+00
1.448128036581880451e+01,3.486940889609686511e+00
1.450128608173763922e+01,2.878564402507337583e+00
1.452129179765647393e+01,2.969657973060104261e+00
1.454129751357530864e+01,2.398637525482310018e+00
1.456130322949414158e+01,2.387374259301290991e+00
1.458130894541297451e+01,2.322079997772564575e+00
1.460131466133180922e+01,3.370505365283767762e+00
1.462132037725064393e+01,2.386296386267479974e+00
1.464132609316947686e+01,2.923693669524128680e+00
1.466133180908831157e+01,3.212633893885370462e+00
1.468133752500714451e+01,2.783311893473380039e+00
1.470134324092597922e+01,3.272531685041022875e+00
1.472134895684481393e+01,3.442196147120023753e+00
1.474135467276364686e+01,2.977863788048366267e+00
1.476136038868247979e+01,3.580663475325954526e+00
1.478136610460131450e+01,3.178075585677796688e+00
1.480137182052014921e+01,3.332938273335209978e+00
1.482137753643898392e+01,3.095712549205877906e+00
1.484138325235781686e+01,3.608187632502972697e+00
1.486138896827664979e+01,2.874253057572899728e+00
1.488139468419548450e+01,2.926337730806308102e+00
1.490140040011431921e+01,3.627456572679040203e+00
1.492140611603315392e+01,2.813975905361179031e+00
1.494141183195198685e+01,3.678623502366720643e+00
1.496141754787081979e+01,3.677053614812040294e+00
1.498142326378965450e+01,3.476975703848060206e+00
1.500142897970848921e+01,2.844137753926854639e+00
1.502143469562732214e+01,3.236211133976513388e+00
1.504144041154615508e+01,3.023172108731941421e+00
1.506144612746498979e+01,3.313878614821513580e+00
1.508145184338382450e+01,3.846270149492250212e+00
1.510145755930265921e+01,4.246109980031446796e+00
1.512146327522149214e+01,3.583059079899680199e+00
1.514146899114032507e+01,3.891025003263668403e+00
1.516147470705915978e+01,4.225076454045181507e+00
1.518148042297799449e+01,3.826589733515699976e+00
1.520148613889682920e+01,3.992247088383658937e+00
1.522149185481566214e+01,3.335431724356926253e+00
1.524149757073449507e+01,4.098961756360269604e+00
1.526150328665332978e+01,3.509706703348821399e+00
1.528150900257216449e+01,3.382437102331481427e+00
1.530151471849099742e+01,3.896133054196160295e+00
1.532152043440983036e+01,3.870739741893354680e+00
1.534152615032866507e+01,4.914630321565010007e+00
1.536153186624749978e+01,5.155930424885775132e+00
1.538153758216633449e+01,4.134724610924935817e+00
1.540154329808516742e+01,4.156544422261670313e+00
1.542154901400400036e+01,5.224681544911692122e+00
1.544155472992283507e+01,5.176016149449973014e+00
1.546156044584166978e+01,4.577880658640244960e+00
1.548156616176050449e+01,5.456305873244666316e+00
1.550157187767933742e+01,5.333588788863359298e+00
1.552157759359817035e+01,5.404443561642574778e+00
1.554158330951700506e+01,5.346527563315573772e+00
1.556158902543583977e+01,6.230893120386912898e+00
1.558159474135467271e+01,5.944776239477960189e+00
1.560160045727350742e+01,6.534961024540141494e+00
1.562160617319234035e+01,6.195523809755032474e+00
1.564161188911117506e+01,6.341508351789514109e+00
1.566161760503000977e+01,5.953750423771547062e+00
1.568162332094884270e+01,7.312031247278875767e+00
1.570162903686767564e+01,7.003919463777867449e+00
1.572163475278651035e+01,7.955270133298501634e+00
1.574164046870534506e+01,7.501843644771014397e+00
1.576164618462417977e+01,8.083005978652353818e+00
1.578165190054301270e+01,7.405766173347139159e+00
1.580165761646184563e+01,8.397342559060154699e+00
1.582166333238068034e+01,8.859217079597456745e+00
1.584166904829951505e+01,9.035916378680960648e+00
1.586167476421834799e+01,8.888371843456315702e+00
1.588168048013718270e+01,9.531820712637740556e+00
1.590168619605601563e+01,1.030819831643188245e+01
1.592169191197485034e+01,9.704121505183172403e+00
1.594169762789368505e+01,1.091058653825389158e+01
1.596170334381251799e+01,1.083248652492497754e+01
1.598170905973135092e+01,1.065074676927516251e+01
1.600171477565018563e+01,1.141358577094671745e+01
1.602172049156902034e+01,1.207623623561510051e+01
1.604172620748785505e+01,1.323745231339168882e+01
1.606173192340668976e+01,1.251631406651445033e+01
1.608173763932552092e+01,1.296157271317992965e+01
1.610174335524435563e+01,1.409203713506333600e+01
1.612174907116319034e+01,1.439899350377204001e+01
1.614175478708202505e+01,1.462910369376480091e+01
1.616176050300085620e+01,1.487069589995420138e+01
1.618176621891969091e+01,1.489684164418162737e+01
1.620177193483852562e+01,1.621130220828072410e+01
1.622177765075736033e+01,1.624221010539411836e+01
1.624178336667619504e+01,1.706281314984748576e+01
1.626178908259502620e+01,1.698624636830216872e+01
1.628179479851386091e+01,1.772140976188651962e+01
1.630180051443269562e+01,1.798378510073585090e+01
1.632180623035153033e+01,1.885410915322289682e+01
1.634181194627036149e+01,2.026226771585869102e+01
1.636181766218919620e+01,2.005785648154920509e+01
1.638182337810803091e+01,2.103911918911076384e+01
1.640182909402686562e+01,2.162065991083709093e+01
1.642183480994570033e+01,2.222742010649075439e+01
1.644184052586453504e+01,2.243736161162680887e+01
1.646184624178336620e+01,2.395693724635597732e+01
1.648185195770220091e+01,2.476320625132328956e+01
1.650185767362103562e+01,2.463220308753990651e+01
1.652186338953986677e+01,2.529807182331284210e+01
1.654186910545870148e+01,2.627578226509862702e+01
1.656187482137753619e+01,2.709777941271885737e+01
1.658188053729637090e+01,2.769759697174101731e+01
1.660188625321520561e+01,2.957333037528404773e+01
1.662189196913404032e+01,2.920799451071085073e+01
1.664189768505287148e+01,3.056653810359653534e+01
1.666190340097170619e+01,3.133830368720910897e+01
1.668190911689054090e+01,3.316543312024037249e+01
1.670191483280937561e+01,3.304605855549917237e+01
1.672192054872820677e+01,3.487599830538529488e+01
1.674192626464704148e+01,3.559531255003984995e+01
1.676193198056587619e+01,3.648432075495947657e+01
1.678193769648471090e+01,3.706066518507395813e+01
1.680194341240354561e+01,3.843590758228461368e+01
1.682194912832238032e+01,3.864242440767387876e+01
1.684195484424121148e+01,3.937360883671420453e+01
1.686196056016004619e+01,4.060811523257550704e+01
1.688196627607888090e+01,4.084468213567939188e+01
1.690197199199771205e+01,4.126955445212786344e+01
1.692197770791654676e+01,4.167037156532806819e+01
1.694198342383538147e+01,4.134791549132924615e+01
1.696198913975421618e+01,4.187194511139587405e+01
1.698199485567305089e+01,4.113505207526259966e+01
1.700200057159188560e+01,4.074883779443881338e+01
1.702200628751071676e+01,4.020254111408094388e+01
1.704201200342955147e+01,3.996298932194713416e+01
1.706201771934838618e+01,3.761047840430769185e+01
1.708202343526722089e+01,3.707186179689895056e+01
1.710202915118605205e+01,3.523550565355373720e+01
1.712203486710488676e+01,3.303859982582785193e+01
1.714204058302372147e+01,3.152216287188801758e+01
1.716204629894255618e+01,2.889647191384687730e+01
1.718205201486139089e+01,2.875668053428397286e+01
1.720205773078022204e+01,2.578753862361165616e+01
1.722206344669905675e+01,2.401077235873572846e+01
1.724206916261789146e+01,2.220876496622436491e+01
1.726207487853672617e+01,2.067637844938157698e+01
1.728208059445555733e+01,1.967292395098594682e+01
1.730208631037439204e+01,1.742045065233399370e+01
1.732209202629322675e+01,1.656939747465010271e+01
1.734209774221206146e+01,1.482841873492460394e+01
1.736210345813089617e+01,1.371165101282992183e+01
1.738210917404973088e+01,1.380865442407617039e+01
1.740211488996856204e+01,1.269718368992340096e+01
1.742212060588739675e+01,1.226853753179472051e+01
1.744212632180623146e+01,1.120133081131653441e+01
1.746213203772506262e+01,1.024413822102096461e+01
1.748213775364389733e+01,1.093498523226976005e+01
1.750214346956273204e+01,1.032259617605521385e+01
1.752214918548156675e+01,9.128220438552634874e+00
1.754215490140040146e+01,9.188496934465051780e+00
1.756216061731923617e+01,9.091844125436985280e+00
1.758216633323806732e+01,8.664144880172521823e+00
1.760217204915690203e+01,9.075125200017451377e+00
1.762217776507573674e+01,8.533588644038832882e+00
1.764218348099457145e+01,7.237089273912385323e+00
1.766218919691340261e+01,7.681202994123333738e+00
1.768219491283223732e+01,6.716739147693758127e+00
1.770220062875107203e+01,6.616570052453562667e+00
1.772220634466990674e+01,5.920308745710124221e+00
1.774221206058874145e+01,6.240513718073905203e+00
1.776221777650757616e+01,5.655544350566998446e+00
1.778222349242640732e+01,6.251172280103665102e+00
1.780222920834524203e+01,4.933642344647148903e+00
1.782223492426407674e+01,4.903149805708119757e+00
1.784224064018290790e+01,5.320909344669559893e+00
1.786224635610174261e+01,4.659208845595878223e+00
1.788225207202057732e+01,4.639705096400499329e+00
1.790225778793941203e+01,5.491205687251333067e+00
1.792226350385824674e+01,4.823301212172997232e+00
1.794226921977708145e+01,4.458289405337166222e+00
1.796227493569591260e+01,4.002034438621157264e+00
