angle,intensity
1.000000000000000000e+01,8.988859324372464243e+01
1.002000571591883471e+01,9.501445440080456706e+01
1.004001143183766764e+01,9.507383780158050968e+01
1.006001714775650235e+01,9.629938045351278220e+01
1.008002286367533529e+01,9.717474934963053101e+01
1.010002857959417000e+01,9.775226446534247771e+01
1.012003429551300293e+01,9.824402798199295717e+01
1.014004001143183764e+01,9.853071440378963075e+01
1.016004572735067235e+01,9.865557680092754822e+01
1.018005144326950528e+01,9.914326651640929811e+01
1.020005715918833999e+01,9.990984921024892174e+01
1.022006287510717293e+01,9.957071977211973035e+01
1.024006859102600764e+01,9.884673308448979867e+01
1.026007430694484057e+01,9.816963037517702162e+01
1.028008002286367528e+01,9.644220458473397173e+01
1.030008573878250999e+01,9.578158540501553375e+01
1.032009145470134293e+01,9.388980185571733728e+01
1.034009717062017764e+01,9.135748585707783320e+01
1.036010288653901057e+01,8.954848889161289094e+01
1.038010860245784528e+01,8.712669351106643489e+01
1.040011431837667999e+01,8.328468123173118443e+01
1.042012003429551292e+01,8.020794593469807410e+01
1.044012575021434763e+01,7.608972316849467177e+01
1.046013146613318057e+01,7.302436513305960375e+01
1.048013718205201528e+01,6.802305165088252181e+01
1.050014289797084821e+01,6.470739195446955705e+01
1.052014861388968292e+01,6.031568212433909082e+01
1.054015432980851585e+01,5.706543020889357365e+01
1.056016004572735056e+01,5.235787522991073217e+01
1.058016576164618527e+01,4.849500118565283202e+01
1.060017147756501821e+01,4.532956502929733489e+01
1.062017719348385292e+01,4.261346562941468363e+01
1.064018290940268585e+01,4.014128284053971640e+01
1.066018862532152056e+01,3.762848672616236456e+01
1.068019434124035527e+01,3.542951158147034363e+01
1.070020005715918820e+01,3.427696773728739288e+01
1.072020577307802292e+01,3.292735047644406166e+01
1.074021148899685585e+01,3.238757067843372539e+01
1.076021720491569056e+01,3.005762081395792507e+01
1.078022292083452349e+01,2.931947316124776393e+01
1.080022863675335820e+01,2.880704498176499584e+01
1.082023435267219291e+01,2.939071736125475809e+01
1.084024006859102585e+01,2.871695413169900490e+01
1.086024578450986056e+01,2.872048436031510121e+01
1.088025150042869349e+01,2.841821816756196739e+01
1.090025721634752820e+01,2.804749138839957112e+01
1.092026293226636113e+01,2.841975318028282516e+01
1.094026864818519584e+01,2.842968603086651669e+01
1.096027436410403055e+01,2.859345476971222055e+01
1.098028008002286349e+01,2.828835755654705153e+01
1.100028579594169820e+01,2.884878659695278103e+01
1.102029151186053113e+01,2.877762400455715053e+01
1.104029722777936584e+01,2.940373213375812611e+01
1.106030294369819877e+01,2.951137910232075967e+01
1.108030865961703348e+01,3.008776827126574105e+01
1.110031437553586819e+01,2.968841950229874982e+01
1.112032009145470113e+01,3.041815314903372069e+01
1.114032580737353584e+01,2.994111332511884882e+01
1.116033152329236877e+01,3.062326307737608033e+01
1.118033723921120348e+01,3.154537408512064900e+01
1.120034295513003642e+01,3.184720201722264221e+01
1.122034867104887113e+01,3.209806438769580694e+01
1.124035438696770584e+01,3.363265828630943588e+01
1.126036010288653877e+01,3.342415262163001444e+01
1.128036581880537348e+01,3.381445230480313313e+01
1.130037153472420641e+01,3.392438391934048525e+01
1.132037725064304112e+01,3.552754306238111326e+01
1.134038296656187583e+01,3.620437397015290060e+01
1.136038868248070877e+01,3.625009690395413031e+01
1.138039439839954348e+01,3.673654056568354065e+01
1.140040011431837641e+01,3.670368632190132985e+01
1.142040583023721112e+01,3.799186880301042635e+01
1.144041154615604405e+01,3.881263374839242886e+01
1.146041726207487876e+01,3.932977028890176285e+01
1.148042297799371170e+01,3.942997413082873237e+01
1.150042869391254641e+01,4.009854136389827772e+01
1.152043440983138112e+01,4.034736441271714114e+01
1.154044012575021405e+01,4.135649757279811922e+01
1.156044584166904876e+01,4.232905268078877725e+01
1.158045155758788169e+01,4.294163335348385147e+01
1.160045727350671640e+01,4.342822667593561903e+01
1.162046298942555111e+01,4.375107729390218481e+01
1.164046870534438405e+01,4.478306264057179931e+01
1.166047442126321876e+01,4.432451613167886251e+01
1.168048013718205169e+01,4.469292511589536332e+01
1.170048585310088640e+01,4.564548025922726282e+01
1.172049156901971934e+01,4.631936209178849140e+01
1.174049728493855405e+01,4.586336382625981400e+01
1.176050300085738698e+01,4.632690658961763575e+01
1.178050871677622169e+01,4.658576308801477239e+01
1.180051443269505640e+01,4.615055208577506107e+01
1.182052014861388933e+01,4.695711695346558656e+01
1.184052586453272404e+01,4.586170827971274377e+01
1.186053158045155698e+01,4.584012694625128859e+01
1.188053729637039169e+01,4.474647815700780029e+01
1.190054301228922640e+01,4.479433406253217953e+01
1.192054872820805933e+01,4.376598409759489527e+01
1.194055444412689404e+01,4.245311503779706186e+01
1.196056016004572697e+01,4.080323151639527168e+01
1.198056587596456168e+01,4.023850007260783457e+01
1.200057159188339639e+01,3.758647956350964137e+01
1.202057730780222933e+01,3.605321946202955274e+01
1.204058302372106226e+01,3.387276495309736646e+01
1.206058873963989697e+01,3.320502838755294306e+01
1.208059445555873168e+01,3.023604223033685656e+01
1.210060017147756461e+01,2.795541913425783775e+01
1.212060588739639932e+01,2.719694584058994380e+01
1.214061160331523226e+01,2.511832528955156008e+01
1.216061731923406697e+01,2.225258931675572782e+01
1.218062303515290168e+01,2.009095566643377140e+01
1.220062875107173461e+01,1.939267185387322101e+01
1.222063446699056932e+01,1.717838244758612021e+01
1.224064018290940226e+01,1.613141142669574180e+01
1.226064589882823697e+01,1.471041462822357460e+01
1.228065161474707168e+01,1.368916257768545641e+01
1.230065733066590461e+01,1.259230855776078073e+01
1.232066304658473754e+01,1.153028042309839130e+01
1.234066876250357225e+01,1.094987925210099178e+01
1.236067447842240696e+01,9.817592418234490026e+00
1.238068019434123990e+01,1.018610655477053051e+01
1.240068591026007461e+01,8.494511309867746718e+00
1.242069162617890754e+01,8.658868686233709866e+00
1.244069734209774225e+01,8.075034985499859985e+00
1.246070305801657696e+01,8.350433855024329333e+00
1.248070877393540989e+01,7.726076378430601466e+00
1.250071448985424460e+01,6.574236102601932252e+00
1.252072020577307754e+01,6.554668708200975580e+00
1.254072592169191225e+01,6.512067920853273684e+00
1.256073163761074696e+01,6.775156780801651735e+00
1.258073735352957989e+01,6.914944837595349725e+00
1.260074306944841460e+01,6.385154943975734909e+00
1.262074878536724754e+01,6.204200953077952718e+00
1.264075450128608225e+01,5.671470701371881695e+00
1.266076021720491518e+01,5.992124358256092798e+00
1.268076593312374989e+01,5.352528429300039470e+00
1.270077164904258282e+01,5.293161687111133773e+00
1.272077736496141753e+01,5.905625462930961689e+00
1.274078308088025224e+01,6.426407787444631481e+00
1.276078879679908518e+01,4.957967991784078876e+00
1.278079451271791989e+01,5.521998264969873560e+00
1.280080022863675282e+01,5.302340453888720440e+00
1.282080594455558753e+01,5.016496450359806403e+00
1.284081166047442224e+01,5.190190424475966680e+00
1.286081737639325517e+01,5.593966709429415651e+00
1.288082309231208988e+01,5.417571277376245220e+00
1.290082880823092282e+01,4.802595617647645199e+00
1.292083452414975753e+01,5.038572042725093070e+00
1.294084024006859224e+01,5.234745888873071351e+00
1.296084595598742517e+01,5.550073672562168881e+00
1.298085167190625810e+01,4.784307174770361826e+00
1.300085738782509281e+01,5.003309947957919057e+00
1.302086310374392752e+01,4.449011507104090768e+00
1.304086881966276046e+01,5.074763560846808907e+00
1.306087453558159517e+01,4.975693802103171137e+00
1.308088025150042810e+01,4.731421697568308993e+00
1.310088596741926281e+01,5.439657446708526578e+00
1.312089168333809752e+01,5.095287146746207085e+00
1.314089739925693046e+01,4.342292921257965510e+00
1.316090311517576517e+01,4.952264946390663169e+00
1.318090883109459810e+01,4.808204400358643937e+00
1.320091454701343281e+01,4.525385143684569123e+00
1.322092026293226752e+01,5.030001955285676729e+00
1.324092597885110045e+01,4.008040925202768889e+00
1.326093169476993339e+01,4.448557610654761518e+00
1.328093741068876810e+01,4.416491312000245806e+00
1.330094312660760281e+01,4.710673749386192988e+00
1.332094884252643574e+01,4.809813613924739606e+00
1.334095455844527045e+01,4.885344522537668155e+00
1.336096027436410338e+01,4.210162506767957780e+00
1.338096599028293809e+01,4.376649528374489506e+00
1.340097170620177280e+01,4.778720988301929040e+00
1.342097742212060574e+01,4.225468840730683517e+00
1.344098313803944045e+01,4.683104184112906410e+00
1.346098885395827338e+01,5.184033583958767899e+00
1.348099456987710809e+01,4.025182064620139499e+00
1.350100028579594280e+01,4.062688813538634314e+00
1.352100600171477573e+01,5.220803879727490049e+00
1.354101171763361044e+01,4.168908805351254188e+00
1.356101743355244338e+01,4.713178441101364413e+00
1.358102314947127809e+01,4.425455697181149617e+00
1.360102886539011102e+01,5.035279530053809793e+00
1.362103458130894573e+01,5.199499926426154772e+00
1.364104029722777867e+01,4.807866705173190702e+00
1.366104601314661338e+01,4.669513758187679109e+00
1.368105172906544809e+01,4.723810735991985865e+00
1.370105744498428102e+01,4.744413460727867182e+00
1.372106316090311573e+01,4.269873327109080741e+00
1.374106887682194866e+01,4.779325064052645899e+00
1.376107459274078337e+01,4.370522516196127860e+00
1.378108030865961808e+01,4.032623142763990920e+00
1.380108602457845102e+01,4.293223501709787726e+00
1.382109174049728573e+01,4.287172156856544625e+00
1.384109745641611866e+01,4.028308854420074248e+00
1.386110317233495337e+01,5.027266196529720510e+00
1.388110888825378808e+01,4.921549754350783346e+00
1.390111460417262101e+01,4.260364131443325597e+00
1.392112032009145395e+01,4.945780564386686784e+00
1.394112603601028866e+01,4.898369749605580026e+00
1.396113175192912337e+01,4.421314223922124143e+00
1.398113746784795630e+01,3.868900046330875142e+00
1.400114318376679101e+01,4.329267770220535105e+00
1.402114889968562395e+01,3.949714995323356792e+00
1.404115461560445866e+01,4.713928192460867805e+00
1.406116033152329337e+01,5.339708127452213127e+00
1.408116604744212630e+01,4.557926929056431931e+00
1.410117176336095923e+01,4.619824995186690764e+00
1.412117747927979394e+01,5.163679609027422401e+00
1.414118319519862865e+01,3.922032001202596874e+00
1.416118891111746336e+01,4.618163318429036046e+00
1.418119462703629630e+01,5.043794961262392462e+00
1.420120034295512923e+01,4.196519307598628679e+00
1.422120605887396394e+01,4.521344762283712626e+00
1.424121177479279865e+01,4.876037121538461250e+00
1.426121749071163336e+01,4.357229191323106932e+00
1.428122320663046629e+01,4.418550238980436973e+00
1.430122892254929923e+01,4.392200443638569318e+00
1.432123463846813394e+01,5.183147700159155491e+00
1.434124035438696865e+01,4.828060013706563680e+00
1.436124607030580158e+01,5.006375884111438523e+00
1.438125178622463629e+01,4.684394804410816349e+00
1.440125750214346922e+01,4.874626220084572026e+00
1.442126321806230393e+01,4.648023789581152698e+00
1.444126893398113864e+01,4.688887441268944301e+00
1.446127464989997158e+01,4.569113357292989619e+00
1.448128036581880451e+01,4.239298727998482619e+00
1.450128608173763922e+01,4.821696147763820051e+00
1.452129179765647393e+01,4.390478804033760341e+00
1.454129751357530864e+01,3.806587787906861919e+00
1.456130322949414158e+01,4.308025417696173420e+00
1.458130894541297451e+01,3.995096914787569453e+00
1.460131466133180922e+01,4.407723268867072441e+00
1.462132037725064393e+01,4.554698859391457688e+00
1.464132609316947686e+01,4.625009383437118871e+00
1.466133180908831157e+01,4.004538690616345598e+00
1.468133752500714451e+01,4.752626051543192176e+00
1.470134324092597922e+01,4.913211771166251296e+00
1.472134895684481393e+01,4.871054287222692736e+00
1.474135467276364686e+01,5.026347617750340113e+00
1.476136038868247979e+01,4.496386687856754882e+00
1.478136610460131450e+01,5.356198770912312668e+00
1.480137182052014921e+01,4.615950514844411323e+00
1.482137753643898392e+01,4.370732157843194798e+00
1.484138325235781686e+01,4.949768383600984478e+00
1.486138896827664979e+01,4.629226408619794064e+00
1.488139468419548450e+01,4.328086993404680172e+00
1.490140040011431921e+01,4.566154418491673361e+00
1.492140611603315392e+01,5.199287675206741177e+00
1.494141183195198685e+01,3.992915499974264204e+00
1.496141754787081979e+01,5.433961107994363715e+00
1.498142326378965450e+01,4.926394644665563760e+00
1.500142897970848921e+01,4.317870848286246677e+00
1.502143469562732214e+01,3.932702779531123127e+00
1.504144041154615508e+01,5.059086946561523135e+00
1.506144612746498979e+01,5.119185901634960345e+00
1.508145184338382450e+01,5.245346479044716403e+00
1.510145755930265921e+01,4.444904109377858958e+00
1.512146327522149214e+01,5.796887159361781450e+00
1.514146899114032507e+01,5.255693208819590012e+00
1.516147470705915978e+01,4.778761247899105946e+00
1.518148042297799449e+01,5.623936359301465515e+00
1.520148613889682920e+01,4.128315104182395778e+00
1.522149185481566214e+01,4.439212495548810367e+00
1.524149757073449507e+01,5.609805259795317411e+00
1.526150328665332978e+01,5.119250170760923702e+00
1.528150900257216449e+01,5.393581517198132502e+00
1.530151471849099742e+01,5.183177631456679535e+00
1.532152043440983036e+01,5.073080319009770633e+00
1.534152615032866507e+01,5.314940942006287194e+00
1.536153186624749978e+01,5.360342340568932329e+00
1.538153758216633449e+01,5.606393558516344022e+00
1.540154329808516742e+01,6.676235666117131373e+00
1.542154901400400036e+01,5.580367194607253722e+00
1.544155472992283507e+01,5.011036530194020067e+00
1.546156044584166978e+01,5.617696938407630292e+00
1.548156616176050449e+01,6.386435128725375776e+00
1.550157187767933742e+01,6.494892359523090519e+00
1.552157759359817035e+01,5.629682153222068663e+00
1.554158330951700506e+01,7.023429287415728695e+00
1.556158902543583977e+01,5.898882434116494267e+00
1.558159474135467271e+01,6.965640311173570076e+00
1.560160045727350742e+01,7.144772609124814267e+00
1.562160617319234035e+01,6.927505691188547310e+00
1.564161188911117506e+01,7.260310972065836310e+00
1.566161760503000977e+01,7.213934566363889189e+00
1.568162332094884270e+01,7.729243128564425191e+00
1.570162903686767564e+01,7.623804534988334325e+00
1.572163475278651035e+01,8.052038698452541610e+00
1.574164046870534506e+01,7.763794304218111897e+00
1.576164618462417977e+01,8.689335877072327463e+00
1.578165190054301270e+01,8.348495500918041046e+00
1.580165761646184563e+01,8.320536157592076876e+00
1.582166333238068034e+01,8.628493049657615543e+00
1.584166904829951505e+01,8.523841666141855455e+00
1.586167476421834799e+01,9.054813457821547118e+00
1.588168048013718270e+01,1.006468017955350902e+01
1.590168619605601563e+01,9.868091693921545726e+00
1.592169191197485034e+01,1.008585027445224114e+01
1.594169762789368505e+01,1.068157965800359221e+01
1.596170334381251799e+01,9.774612179271631618e+00
1.598170905973135092e+01,9.872094341976755061e+00
1.600171477565018563e+01,1.053854551956060348e+01
1.602172049156902034e+01,1.036530604794097954e+01
1.604172620748785505e+01,1.106912434900472064e+01
1.606173192340668976e+01,1.122795002691602306e+01
1.608173763932552092e+01,1.211668804015958933e+01
1.610174335524435563e+01,1.192999733191077816e+01
1.612174907116319034e+01,1.232328305997742746e+01
1.614175478708202505e+01,1.271669378696554631e+01
1.616176050300085620e+01,1.321511049602812449e+01
1.618176621891969091e+01,1.332024952391882699e+01
1.620177193483852562e+01,1.389179826759755443e+01
1.622177765075736033e+01,1.324498044302790056e+01
1.624178336667619504e+01,1.486128382682668736e+01
1.626178908259502620e+01,1.531440200986090971e+01
1.628179479851386091e+01,1.561140758468893530e+01
1.630180051443269562e+01,1.542446400059802336e+01
1.632180623035153033e+01,1.582079832944167919e+01
1.634181194627036149e+01,1.690622312813693995e+01
1.636181766218919620e+01,1.646134164469713568e+01
1.638182337810803091e+01,1.731159971060397851e+01
1.640182909402686562e+01,1.766241045094125184e+01
1.642183480994570033e+01,1.785630112547101334e+01
1.644184052586453504e+01,1.801664114677660677e+01
1.646184624178336620e+01,1.924307307554850155e+01
1.648185195770220091e+01,1.867656148660803339e+01
1.650185767362103562e+01,1.917570978804229753e+01
1.652186338953986677e+01,1.974065580840358791e+01
1.654186910545870148e+01,2.159584931523068008e+01
1.656187482137753619e+01,2.154190815090255384e+01
1.658188053729637090e+01,2.169391341995832079e+01
1.660188625321520561e+01,2.196590684620172240e+01
1.662189196913404032e+01,2.270730123134580580e+01
1.664189768505287148e+01,2.389059988252409283e+01
1.666190340097170619e+01,2.465991985105754836e+01
1.668190911689054090e+01,2.522554325461658209e+01
1.670191483280937561e+01,2.492246195240741002e+01
1.672192054872820677e+01,2.584533994401292745e+01
1.674192626464704148e+01,2.657697039658838278e+01
1.676193198056587619e+01,2.652100131585348208e+01
1.678193769648471090e+01,2.710759169923420941e+01
1.680194341240354561e+01,2.847703945298162154e+01
1.682194912832238032e+01,2.853253476476576722e+01
1.684195484424121148e+01,2.929090638673490332e+01
1.686196056016004619e+01,2.998120733094111756e+01
1.688196627607888090e+01,3.066941059854940121e+01
1.690197199199771205e+01,3.035508601251875405e+01
1.692197770791654676e+01,3.058213977199598332e+01
1.694198342383538147e+01,3.036734472049781175e+01
1.696198913975421618e+01,3.073722431003372435e+01
1.698199485567305089e+01,3.059429790335148880e+01
1.700200057159188560e+01,3.082961901538119776e+01
1.702200628751071676e+01,3.104982266716452699e+01
1.704201200342955147e+01,3.032538247801572595e+01
1.706201771934838618e+01,2.865208601421851498e+01
1.708202343526722089e+01,2.841983918668642417e+01
1.710202915118605205e+01,2.691456725989333876e+01
1.712203486710488676e+01,2.629499542508610688e+01
1.714204058302372147e+01,2.488266149098859970e+01
1.716204629894255618e+01,2.437975672312977338e+01
1.718205201486139089e+01,2.247630530373040614e+01
1.720205773078022204e+01,2.195268348900718536e+01
1.722206344669905675e+01,2.010589644667976472e+01
1.724206916261789146e+01,1.965202267476208675e+01
1.726207487853672617e+01,1.715760814092295305e+01
1.728208059445555733e+01,1.564871330646076331e+01
1.730208631037439204e+01,1.532842265444211627e+01
1.732209202629322675e+01,1.485720873163925759e+01
1.734209774221206146e+01,1.264761609218767546e+01
1.736210345813089617e+01,1.259939313411390494e+01
1.738210917404973088e+01,1.183858626739575826e+01
1.740211488996856204e+01,1.109428510776000287e+01
1.742212060588739675e+01,1.099013731394608051e+01
1.744212632180623146e+01,9.653694699961949510e+00
1.746213203772506262e+01,1.002853834365273222e+01
1.748213775364389733e+01,9.223691325438078792e+00
1.750214346956273204e+01,9.732043418364035858e+00
1.752214918548156675e+01,9.383471168430267184e+00
1.754215490140040146e+01,8.630623290113677015e+00
1.756216061731923617e+01,9.436655818409189322e+00
1.758216633323806732e+01,9.019652160543273567e+00
1.760217204915690203e+01,9.578860626842201853e+00
1.762217776507573674e+01,9.140802408776302457e+00
1.764218348099457145e+01,8.802804957738564084e+00
1.766218919691340261e+01,8.479935361035229491e+00
1.768219491283223732e+01,8.773262802539003147e+00
1.770220062875107203e+01,9.372931363932172744e+00
1.772220634466990674e+01,9.080135324080506720e+00
1.774221206058874145e+01,9.120201535368007484e+00
1.776221777650757616e+01,9.187245690143733157e+00
1.778222349242640732e+01,8.803133525857072428e+00
1.780222920834524203e+01,9.896775963144111898e+00
1.782223492426407674e+01,9.897725050912026035e+00
1.784224064018290790e+01,9.207080524539279054e+00
1.786224635610174261e+01,9.473326238639224073e+00
1.788225207202057732e+01,9.312868013504353115e+00
1.790225778793941203e+01,9.880786778521517988e+00
1.792226350385824674e+01,1.114161085192655420e+01
1.794226921977708145e+01,1.063876475607843908e+01
1.796227493569591260e+01,1.140278656133380153e+01
