angle,intensity
1.000000000000000000e+01,5.126091319672606517e+01
1.002000571591883471e+01,5.171051153820677371e+01
1.004001143183766764e+01,5.261917663331098538e+01
1.006001714775650235e+01,5.256227305401054650e+01
1.008002286367533529e+01,5.187410424425390687e+01
1.010002857959417000e+01,5.265720384331392268e+01
1.012003429551300293e+01,5.314904529890501550e+01
1.014004001143183764e+01,5.207553540445206153e+01
1.016004572735067235e+01,5.128628093395383303e+01
1.018005144326950528e+01,5.167053790242881206e+01
1.020005715918833999e+01,5.127116832946917668e+01
1.022006287510717293e+01,5.073958578981222445e+01
1.024006859102600764e+01,4.937177039779823673e+01
1.026007430694484057e+01,4.777872555176285374e+01
1.028008002286367528e+01,4.687408173931895305e+01
1.030008573878250999e+01,4.599920042266339948e+01
1.032009145470134293e+01,4.345151938395589042e+01
1.034009717062017764e+01,4.108811956345110161e+01
1.036010288653901057e+01,3.900735667773216164e+01
1.038010860245784528e+01,3.707620359931080145e+01
1.040011431837667999e+01,3.473609065491259429e+01
1.042012003429551292e+01,3.129425182293706698e+01
1.044012575021434763e+01,2.958384892791832499e+01
1.046013146613318057e+01,2.743885680181507425e+01
1.048013718205201528e+01,2.526953590276345807e+01
1.050014289797084821e+01,2.326506151600632322e+01
1.052014861388968292e+01,2.165699508144886920e+01
1.054015432980851585e+01,1.968297542866620020e+01
1.056016004572735056e+01,1.895924214183271062e+01
1.058016576164618527e+01,1.742271216638264875e+01
1.060017147756501821e+01,1.575846728706737920e+01
1.062017719348385292e+01,1.515657592296322953e+01
1.064018290940268585e+01,1.442889759931157556e+01
1.066018862532152056e+01,1.494023752800114480e+01
1.068019434124035527e+01,1.457559176717347782e+01
1.070020005715918820e+01,1.450648415720749895e+01
1.072020577307802292e+01,1.330750913151160120e+01
1.074021148899685585e+01,1.383260411693511927e+01
1.076021720491569056e+01,1.303062780591859138e+01
1.078022292083452349e+01,1.417088439301396185e+01
1.080022863675335820e+01,1.356709459127306872e+01
1.082023435267219291e+01,1.380605044265933401e+01
1.084024006859102585e+01,1.371395044741467117e+01
1.086024578450986056e+01,1.355252244722743704e+01
1.088025150042869349e+01,1.393548790743774113e+01
1.090025721634752820e+01,1.378376679223196533e+01
1.092026293226636113e+01,1.421818262695171597e+01
1.094026864818519584e+01,1.400635128366218041e+01
1.096027436410403055e+01,1.449192303256315562e+01
1.098028008002286349e+01,1.457993544163445421e+01
1.100028579594169820e+01,1.487187020509825786e+01
1.102029151186053113e+01,1.527909035806731985e+01
1.104029722777936584e+01,1.495825682459050299e+01
1.106030294369819877e+01,1.567716200306822039e+01
1.108030865961703348e+01,1.625989877979530362e+01
1.110031437553586819e+01,1.540348427491581695e+01
1.112032009145470113e+01,1.565456541586416428e+01
1.114032580737353584e+01,1.630150872880811619e+01
1.116033152329236877e+01,1.667459754401183147e+01
1.118033723921120348e+01,1.699601912225692502e+01
1.120034295513003642e+01,1.716798747040848738e+01
1.122034867104887113e+01,1.642783167210031436e+01
1.124035438696770584e+01,1.751683318767789643e+01
1.126036010288653877e+01,1.791581646591209775e+01
1.128036581880537348e+01,1.829561639544735741e+01
1.130037153472420641e+01,1.844520747243208447e+01
1.132037725064304112e+01,1.903552264181965015e+01
1.134038296656187583e+01,1.869321234575357593e+01
1.136038868248070877e+01,1.859461543214586143e+01
1.138039439839954348e+01,1.977816804709317111e+01
1.140040011431837641e+01,1.930287814278329606e+01
1.142040583023721112e+01,2.046261349795416251e+01
1.144041154615604405e+01,2.111798694130650134e+01
1.146041726207487876e+01,2.108949245120118476e+01
1.148042297799371170e+01,2.130415715501045781e+01
1.150042869391254641e+01,2.155038594329207768e+01
1.152043440983138112e+01,2.194307272295473510e+01
1.154044012575021405e+01,2.255667319258988357e+01
1.156044584166904876e+01,2.272207454789899117e+01
1.158045155758788169e+01,2.312584583537116245e+01
1.160045727350671640e+01,2.249134044882110928e+01
1.162046298942555111e+01,2.314915611143090501e+01
1.164046870534438405e+01,2.420475118600619524e+01
1.166047442126321876e+01,2.304487779325101471e+01
1.168048013718205169e+01,2.379012970664888726e+01
1.170048585310088640e+01,2.404613089250061719e+01
1.172049156901971934e+01,2.441099929735087670e+01
1.174049728493855405e+01,2.394765832327028221e+01
1.176050300085738698e+01,2.484024546675988532e+01
1.178050871677622169e+01,2.485912075657586229e+01
1.180051443269505640e+01,2.350135633881551911e+01
1.182052014861388933e+01,2.455218305048629190e+01
1.184052586453272404e+01,2.330866718601236443e+01
1.186053158045155698e+01,2.304165744704977925e+01
1.188053729637039169e+01,2.334647610526387851e+01
1.190054301228922640e+01,2.172883682354757795e+01
1.192054872820805933e+01,2.165365057174913588e+01
1.194055444412689404e+01,2.060502026324029856e+01
1.196056016004572697e+01,1.965054346151911702e+01
1.198056587596456168e+01,1.969272566552900372e+01
1.200057159188339639e+01,1.808587805835067286e+01
1.202057730780222933e+01,1.688970711771731104e+01
1.204058302372106226e+01,1.613138061680263391e+01
1.206058873963989697e+01,1.534177756220243971e+01
1.208059445555873168e+01,1.423229759154181195e+01
1.210060017147756461e+01,1.374690647228976381e+01
1.212060588739639932e+01,1.245130425743791847e+01
1.214061160331523226e+01,1.212149679947325609e+01
1.216061731923406697e+01,1.082972726352175918e+01
1.218062303515290168e+01,1.018760131350727605e+01
1.220062875107173461e+01,1.020204534578503264e+01
1.222063446699056932e+01,9.449254000150304478e+00
1.224064018290940226e+01,8.561423659490603910e+00
1.226064589882823697e+01,7.616335408763628578e+00
1.228065161474707168e+01,8.025575385004939832e+00
1.230065733066590461e+01,8.354114106020556818e+00
1.232066304658473754e+01,7.285131677786202964e+00
1.234066876250357225e+01,7.278369281733892748e+00
1.236067447842240696e+01,6.931609228410994916e+00
1.238068019434123990e+01,7.532746324834032059e+00
1.240068591026007461e+01,6.809836835755990414e+00
1.242069162617890754e+01,7.094833484788762412e+00
1.244069734209774225e+01,6.830753250194828041e+00
1.246070305801657696e+01,7.211921124115230342e+00
1.248070877393540989e+01,6.765361096592009460e+00
1.250071448985424460e+01,6.089112046939987977e+00
1.252072020577307754e+01,6.992167850145687424e+00
1.254072592169191225e+01,7.013946039514381781e+00
1.256073163761074696e+01,6.522448017649780994e+00
1.258073735352957989e+01,6.923880015375001307e+00
1.260074306944841460e+01,7.226459547601050915e+00
1.262074878536724754e+01,7.029329124943608065e+00
1.264075450128608225e+01,7.191030672552497727e+00
1.266076021720491518e+01,7.840855408729447973e+00
1.268076593312374989e+01,7.173704732204932100e+00
1.270077164904258282e+01,7.136580616595214366e+00
1.272077736496141753e+01,7.219210454753705264e+00
1.274078308088025224e+01,7.538381814269409453e+00
1.276078879679908518e+01,7.407213314796363690e+00
1.278079451271791989e+01,7.616305879036140425e+00
1.280080022863675282e+01,7.636683803328924824e+00
1.282080594455558753e+01,7.109284092208012495e+00
1.284081166047442224e+01,8.605198576710398228e+00
1.286081737639325517e+01,8.155173030720526128e+00
1.288082309231208988e+01,8.607967018540300330e+00
1.290082880823092282e+01,7.957209168701202096e+00
1.292083452414975753e+01,8.175004190190207964e+00
1.294084024006859224e+01,7.844744337957808789e+00
1.296084595598742517e+01,7.499997039496177464e+00
1.298085167190625810e+01,8.515648908927694549e+00
1.300085738782509281e+01,8.522416714618781697e+00
1.302086310374392752e+01,9.066798069809093974e+00
1.304086881966276046e+01,8.519708171619571502e+00
1.306087453558159517e+01,9.094289191856649524e+00
1.308088025150042810e+01,8.513006109658006082e+00
1.310088596741926281e+01,9.391623778986833315e+00
1.312089168333809752e+01,8.272598438627399631e+00
1.314089739925693046e+01,8.229301033242494512e+00
1.316090311517576517e+01,8.776637602443770447e+00
1.318090883109459810e+01,9.337277938374626274e+00
1.320091454701343281e+01,8.647763529339075106e+00
1.322092026293226752e+01,8.821709377088730264e+00
1.324092597885110045e+01,7.905253279922066056e+00
1.326093169476993339e+01,8.139133465768976450e+00
1.328093741068876810e+01,7.365141061616487406e+00
1.330094312660760281e+01,7.964664321279627757e+00
1.332094884252643574e+01,7.412779889457921101e+00
1.334095455844527045e+01,7.406290631945084968e+00
1.336096027436410338e+01,7.384730599984660415e+00
1.338096599028293809e+01,7.091613613728585896e+00
1.340097170620177280e+01,6.338142432134246995e+00
1.342097742212060574e+01,5.713790553253239146e+00
1.344098313803944045e+01,6.508436178608859812e+00
1.346098885395827338e+01,5.267862884932485557e+00
1.348099456987710809e+01,6.691023913133256507e+00
1.350100028579594280e+01,5.791057238875277235e+00
1.352100600171477573e+01,5.652267729835415366e+00
1.354101171763361044e+01,5.354613186131552460e+00
1.356101743355244338e+01,5.459265457612014316e+00
1.358102314947127809e+01,5.123886257112506115e+00
1.360102886539011102e+01,5.028136180153391699e+00
1.362103458130894573e+01,5.232277888077225825e+00
1.364104029722777867e+01,5.436319082347587539e+00
1.366104601314661338e+01,5.468550362048059554e+00
1.368105172906544809e+01,5.671177798599737585e+00
1.370105744498428102e+01,5.046365430967400201e+00
1.372106316090311573e+01,5.780837135580308761e+00
1.374106887682194866e+01,5.544826503707643184e+00
1.376107459274078337e+01,5.723540777261925783e+00
1.378108030865961808e+01,6.125307078291319485e+00
1.380108602457845102e+01,5.178972697853521545e+00
1.382109174049728573e+01,5.766095371165261163e+00
1.384109745641611866e+01,5.337571823944661453e+00
1.386110317233495337e+01,5.771364050068749307e+00
1.388110888825378808e+01,5.957474374540092654e+00
1.390111460417262101e+01,5.366326463334720742e+00
1.392112032009145395e+01,5.302618878808766922e+00
1.394112603601028866e+01,6.052795734817895124e+00
1.396113175192912337e+01,5.754330319722905429e+00
1.398113746784795630e+01,5.722753513898821254e+00
1.400114318376679101e+01,5.959562822385553460e+00
1.402114889968562395e+01,6.137628340482332412e+00
1.404115461560445866e+01,6.758250940452475319e+00
1.406116033152329337e+01,6.322957003684612332e+00
1.408116604744212630e+01,6.435281942361383400e+00
1.410117176336095923e+01,6.029267406883873193e+00
1.412117747927979394e+01,5.828118243964785172e+00
1.414118319519862865e+01,6.222895038651785171e+00
1.416118891111746336e+01,7.369377985903298622e+00
1.418119462703629630e+01,7.221198800438882515e+00
1.420120034295512923e+01,6.693442159271921987e+00
1.422120605887396394e+01,7.397156545067151256e+00
1.424121177479279865e+01,6.726256330564644337e+00
1.426121749071163336e+01,6.880445095221718432e+00
1.428122320663046629e+01,7.164318651561528029e+00
1.430122892254929923e+01,6.869151506420021036e+00
1.432123463846813394e+01,7.064370156880001694e+00
1.434124035438696865e+01,7.870253866305747970e+00
1.436124607030580158e+01,8.130669671241275154e+00
1.438125178622463629e+01,7.892795102783804140e+00
1.440125750214346922e+01,7.833367877047102468e+00
1.442126321806230393e+01,7.932504228317149853e+00
1.444126893398113864e+01,7.695856558215774967e+00
1.446127464989997158e+01,8.536737418384337417e+00
1.448128036581880451e+01,8.242769438921813574e+00
1.450128608173763922e+01,9.328558517970721553e+00
1.452129179765647393e+01,9.741953602217593655e+00
1.454129751357530864e+01,8.372797277828713192e+00
1.456130322949414158e+01,9.170591528004372606e+00
1.458130894541297451e+01,9.036568215001503646e+00
1.460131466133180922e+01,8.846928835914564360e+00
1.462132037725064393e+01,9.694308874915487095e+00
1.464132609316947686e+01,9.739302990792351622e+00
1.466133180908831157e+01,1.009105336474324233e+01
1.468133752500714451e+01,9.980654117581638118e+00
1.470134324092597922e+01,9.668189977599279672e+00
1.472134895684481393e+01,9.729528496802913651e+00
1.474135467276364686e+01,9.919936239080024976e+00
1.476136038868247979e+01,9.868955461267274742e+00
1.478136610460131450e+01,1.041160292346982175e+01
1.480137182052014921e+01,1.061262543904920364e+01
1.482137753643898392e+01,9.927469219825059810e+00
1.484138325235781686e+01,9.438385094125084862e+00
1.486138896827664979e+01,9.000485074800067764e+00
1.488139468419548450e+01,9.114276798231783161e+00
1.490140040011431921e+01,8.878665947199774422e+00
1.492140611603315392e+01,8.919844549275799395e+00
1.494141183195198685e+01,9.378181512690890287e+00
1.496141754787081979e+01,8.136314503750998739e+00
1.498142326378965450e+01,8.070028205792249665e+00
1.500142897970848921e+01,7.391814526480787961e+00
1.502143469562732214e+01,8.103201237736348261e+00
1.504144041154615508e+01,6.949529229214147286e+00
1.506144612746498979e+01,6.157559552876328723e+00
1.508145184338382450e+01,6.636591344560360817e+00
1.510145755930265921e+01,6.267109033487095360e+00
1.512146327522149214e+01,5.849471000796168774e+00
1.514146899114032507e+01,5.978220897946454393e+00
1.516147470705915978e+01,5.718239465221177653e+00
1.518148042297799449e+01,6.056034482414027309e+00
1.520148613889682920e+01,5.991310632161907179e+00
1.522149185481566214e+01,6.055857924578949891e+00
1.524149757073449507e+01,6.492267499877174330e+00
1.526150328665332978e+01,6.318591092742392945e+00
1.528150900257216449e+01,6.160932522070208250e+00
1.530151471849099742e+01,5.426427924818129966e+00
1.532152043440983036e+01,6.263184582572597137e+00
1.534152615032866507e+01,5.649918050776465250e+00
1.536153186624749978e+01,6.129510738958972915e+00
1.538153758216633449e+01,6.539266895213387443e+00
1.540154329808516742e+01,6.439107815922967326e+00
1.542154901400400036e+01,6.534463015108316064e+00
1.544155472992283507e+01,6.359277696025676718e+00
1.546156044584166978e+01,6.269061019966878590e+00
1.548156616176050449e+01,5.792875325666465791e+00
1.550157187767933742e+01,7.182701370699517085e+00
1.552157759359817035e+01,6.770177085117682125e+00
1.554158330951700506e+01,6.829356694805024830e+00
1.556158902543583977e+01,6.450180972088013220e+00
1.558159474135467271e+01,7.530643507036964834e+00
1.560160045727350742e+01,7.282988651277515046e+00
1.562160617319234035e+01,8.185593838466711958e+00
1.564161188911117506e+01,8.038769113240883613e+00
1.566161760503000977e+01,8.155553363548785129e+00
1.568162332094884270e+01,7.384385561849412305e+00
1.570162903686767564e+01,8.432151739007665014e+00
1.572163475278651035e+01,8.205607507026218883e+00
1.574164046870534506e+01,7.793823499077023875e+00
1.576164618462417977e+01,9.003941945620637100e+00
1.578165190054301270e+01,8.881551587195605890e+00
1.580165761646184563e+01,8.652981951388865056e+00
1.582166333238068034e+01,8.884755970571822203e+00
1.584166904829951505e+01,8.874759338300169276e+00
1.586167476421834799e+01,9.665912094362141715e+00
1.588168048013718270e+01,9.895297861966025010e+00
1.590168619605601563e+01,1.032745871475009380e+01
1.592169191197485034e+01,1.015493790693929910e+01
1.594169762789368505e+01,9.822310281625842521e+00
1.596170334381251799e+01,1.067592387489924377e+01
1.598170905973135092e+01,1.099919248857292331e+01
1.600171477565018563e+01,1.144915584480085791e+01
1.602172049156902034e+01,1.132465673898472147e+01
1.604172620748785505e+01,1.032578018279139442e+01
1.606173192340668976e+01,1.150477123093095955e+01
1.608173763932552092e+01,1.140658066175571683e+01
1.610174335524435563e+01,1.168728955977176653e+01
1.612174907116319034e+01,1.134681349339386003e+01
1.614175478708202505e+01,1.170754063352096352e+01
1.616176050300085620e+01,1.224960148790468040e+01
1.618176621891969091e+01,1.109268700307707078e+01
1.620177193483852562e+01,1.100139842341967267e+01
1.622177765075736033e+01,1.113372242590911121e+01
1.624178336667619504e+01,1.191104638868912424e+01
1.626178908259502620e+01,1.160810961992365264e+01
1.628179479851386091e+01,1.231337301351985580e+01
1.630180051443269562e+01,1.224837649376869919e+01
1.632180623035153033e+01,1.113264899790363671e+01
1.634181194627036149e+01,1.237617150063276661e+01
1.636181766218919620e+01,1.118355107353795219e+01
1.638182337810803091e+01,1.179355058075217144e+01
1.640182909402686562e+01,1.237195458970341910e+01
1.642183480994570033e+01,1.231000770821606594e+01
1.644184052586453504e+01,1.178308952181408742e+01
1.646184624178336620e+01,1.232748269766530846e+01
1.648185195770220091e+01,1.284097448214945025e+01
1.650185767362103562e+01,1.340986855602835703e+01
1.652186338953986677e+01,1.347027317631892629e+01
1.654186910545870148e+01,1.373223879781277823e+01
1.656187482137753619e+01,1.384126091635048006e+01
1.658188053729637090e+01,1.345196003310928745e+01
1.660188625321520561e+01,1.446483624285116498e+01
1.662189196913404032e+01,1.442467128308596003e+01
1.664189768505287148e+01,1.521053689310425483e+01
1.666190340097170619e+01,1.428714580731007899e+01
1.668190911689054090e+01,1.521287821469763202e+01
1.670191483280937561e+01,1.603470926117384820e+01
1.672192054872820677e+01,1.600695030461282187e+01
1.674192626464704148e+01,1.592350502237350796e+01
1.676193198056587619e+01,1.508148605830621136e+01
1.678193769648471090e+01,1.616582810035506057e+01
1.680194341240354561e+01,1.604901839953284437e+01
1.682194912832238032e+01,1.624868209755365456e+01
1.684195484424121148e+01,1.628740953121014812e+01
1.686196056016004619e+01,1.594589140488891488e+01
1.688196627607888090e+01,1.594213716454042995e+01
1.690197199199771205e+01,1.517193871680295558e+01
1.692197770791654676e+01,1.435321622998974256e+01
1.694198342383538147e+01,1.504382938707966311e+01
1.696198913975421618e+01,1.370794959282446968e+01
1.698199485567305089e+01,1.444571395289982263e+01
1.700200057159188560e+01,1.322457172566778283e+01
1.702200628751071676e+01,1.224846893142776594e+01
1.704201200342955147e+01,1.210988229474813949e+01
1.706201771934838618e+01,1.194722413520786475e+01
1.708202343526722089e+01,1.191325324502140148e+01
1.710202915118605205e+01,1.127856358078618371e+01
1.712203486710488676e+01,1.131476378949833972e+01
1.714204058302372147e+01,1.063071317024228790e+01
1.716204629894255618e+01,1.050200006392101493e+01
1.718205201486139089e+01,1.063303213273982628e+01
1.720205773078022204e+01,1.000601296988780575e+01
1.722206344669905675e+01,9.699516353037381577e+00
1.724206916261789146e+01,1.101053204284057685e+01
1.726207487853672617e+01,1.005214074676351821e+01
1.728208059445555733e+01,1.049035069193412895e+01
1.730208631037439204e+01,1.038788437455456481e+01
1.732209202629322675e+01,1.009992156980953837e+01
1.734209774221206146e+01,1.005775887592934836e+01
1.736210345813089617e+01,1.008848141197379888e+01
1.738210917404973088e+01,1.034220056897799012e+01
1.740211488996856204e+01,9.453820385101256107e+00
1.742212060588739675e+01,9.355846161142086004e+00
1.744212632180623146e+01,9.627717271851544467e+00
1.746213203772506262e+01,9.676030299870074458e+00
1.748213775364389733e+01,9.021898626235511642e+00
1.750214346956273204e+01,8.528164620891191205e+00
1.752214918548156675e+01,8.987268984531272764e+00
1.754215490140040146e+01,8.799979706298909576e+00
1.756216061731923617e+01,9.417303638102167085e+00
1.758216633323806732e+01,9.012920948400971355e+00
1.760217204915690203e+01,9.152516671350905852e+00
1.762217776507573674e+01,8.860215615624206009e+00
1.764218348099457145e+01,8.013100285872244655e+00
1.766218919691340261e+01,8.782903607836036741e+00
1.768219491283223732e+01,8.464183585192055048e+00
1.770220062875107203e+01,9.115384432438583318e+00
1.772220634466990674e+01,9.336326905308391488e+00
1.774221206058874145e+01,8.810789011054851017e+00
1.776221777650757616e+01,8.132438399574382970e+00
1.778222349242640732e+01,9.210873271593230882e+00
1.780222920834524203e+01,8.474698606254799316e+00
1.782223492426407674e+01,8.064014040732548239e+00
1.784224064018290790e+01,8.681283220526893274e+00
1.786224635610174261e+01,8.251932749982874071e+00
1.788225207202057732e+01,8.180687362288637132e+00
1.790225778793941203e+01,8.218639159429338648e+00
1.792226350385824674e+01,7.692233705731415405e+00
1.794226921977708145e+01,7.253715682648788743e+00
1.796227493569591260e+01,7.524280286978688892e+00
