angle,intensity
1.000000000000000000e+01,5.026493909129681015e+01
1.002000571591883471e+01,5.242867461579832877e+01
1.004001143183766764e+01,5.262412336033256821e+01
1.006001714775650235e+01,5.361511431786737347e+01
1.008002286367533529e+01,5.399036271033708800e+01
1.010002857959417000e+01,5.340533012442063665e+01
1.012003429551300293e+01,5.313743463496937380e+01
1.014004001143183764e+01,5.295788728829354852e+01
1.016004572735067235e+01,5.395665455448186520e+01
1.018005144326950528e+01,5.353299848181875120e+01
1.020005715918833999e+01,5.318171174859871542e+01
1.022006287510717293e+01,5.191769048764911076e+01
1.024006859102600764e+01,5.083632449056550229e+01
1.026007430694484057e+01,5.026346940812148745e+01
1.028008002286367528e+01,4.889751054613494574e+01
1.030008573878250999e+01,4.790641031300648223e+01
1.032009145470134293e+01,4.533861717395348023e+01
1.034009717062017764e+01,4.260935929266414490e+01
1.036010288653901057e+01,4.120770709057062220e+01
1.038010860245784528e+01,3.896893126178304101e+01
1.040011431837667999e+01,3.647003247481055865e+01
1.042012003429551292e+01,3.421607198178509890e+01
1.044012575021434763e+01,3.086553597607254673e+01
1.046013146613318057e+01,2.788914916297956381e+01
1.048013718205201528e+01,2.535988256340730018e+01
1.050014289797084821e+01,2.345959444956951501e+01
1.052014861388968292e+01,2.210879266771861751e+01
1.054015432980851585e+01,2.052825621788830546e+01
1.056016004572735056e+01,1.877738304381571055e+01
1.058016576164618527e+01,1.731954122330021306e+01
1.060017147756501821e+01,1.639930415122278973e+01
1.062017719348385292e+01,1.679732591262286689e+01
1.064018290940268585e+01,1.548059292508239260e+01
1.066018862532152056e+01,1.523159415930185645e+01
1.068019434124035527e+01,1.616142245775541753e+01
1.070020005715918820e+01,1.621810827501396091e+01
1.072020577307802292e+01,1.561830894244878110e+01
1.074021148899685585e+01,1.574250365368409987e+01
1.076021720491569056e+01,1.658315700051331731e+01
1.078022292083452349e+01,1.608077121809737520e+01
1.080022863675335820e+01,1.562116662736303674e+01
1.082023435267219291e+01,1.637154422022458888e+01
1.084024006859102585e+01,1.687587446662627855e+01
1.086024578450986056e+01,1.602970983029724650e+01
1.088025150042869349e+01,1.691172497458817503e+01
1.090025721634752820e+01,1.641846670829376365e+01
1.092026293226636113e+01,1.717968257081545147e+01
1.094026864818519584e+01,1.695320527588603809e+01
1.096027436410403055e+01,1.814023168174693268e+01
1.098028008002286349e+01,1.800522449687315074e+01
1.100028579594169820e+01,1.879160621126158759e+01
1.102029151186053113e+01,1.843012133637007821e+01
1.104029722777936584e+01,1.918413067763562907e+01
1.106030294369819877e+01,1.973937628812925027e+01
1.108030865961703348e+01,2.029505485555090161e+01
1.110031437553586819e+01,2.048907205489355476e+01
1.112032009145470113e+01,2.109732108863791211e+01
1.114032580737353584e+01,2.130480248292616707e+01
1.116033152329236877e+01,2.120490413971344168e+01
1.118033723921120348e+01,2.210204062212939391e+01
1.120034295513003642e+01,2.258335291746541174e+01
1.122034867104887113e+01,2.308050123026324840e+01
1.124035438696770584e+01,2.356971956253469713e+01
1.126036010288653877e+01,2.360337561279158081e+01
1.128036581880537348e+01,2.470327344999868302e+01
1.130037153472420641e+01,2.530447131505842506e+01
1.132037725064304112e+01,2.526760206934461195e+01
1.134038296656187583e+01,2.570719973195122066e+01
1.136038868248070877e+01,2.713234269091743300e+01
1.138039439839954348e+01,2.683966767169329870e+01
1.140040011431837641e+01,2.750271955682102032e+01
1.142040583023721112e+01,2.829404844153089726e+01
1.144041154615604405e+01,2.837234237628889844e+01
1.146041726207487876e+01,2.893341978115903856e+01
1.148042297799371170e+01,3.058804601415834057e+01
1.150042869391254641e+01,3.106837244183460456e+01
1.152043440983138112e+01,3.076390334025019513e+01
1.154044012575021405e+01,3.097465563198903737e+01
1.156044584166904876e+01,3.224451576746594128e+01
1.158045155758788169e+01,3.246692216731136682e+01
1.160045727350671640e+01,3.396262164402262584e+01
1.162046298942555111e+01,3.397024371769597906e+01
1.164046870534438405e+01,3.497581968102467442e+01
1.166047442126321876e+01,3.595266688178907799e+01
1.168048013718205169e+01,3.546677739648249883e+01
1.170048585310088640e+01,3.617873200586922167e+01
1.172049156901971934e+01,3.651313780653787688e+01
1.174049728493855405e+01,3.757078861667345393e+01
1.176050300085738698e+01,3.802079850237853265e+01
1.178050871677622169e+01,3.773168981070764971e+01
1.180051443269505640e+01,3.816537362462059946e+01
1.182052014861388933e+01,3.789023119440325615e+01
1.184052586453272404e+01,3.877507699556566934e+01
1.186053158045155698e+01,3.895634450980994501e+01
1.188053729637039169e+01,3.903731462391348117e+01
1.190054301228922640e+01,3.891603318874106776e+01
1.192054872820805933e+01,3.875228759926349653e+01
1.194055444412689404e+01,3.783412929089860910e+01
1.196056016004572697e+01,3.880347206282119998e+01
1.198056587596456168e+01,3.821265990456060280e+01
1.200057159188339639e+01,3.685266138015357029e+01
1.202057730780222933e+01,3.571444787932267673e+01
1.204058302372106226e+01,3.495783025810375477e+01
1.206058873963989697e+01,3.338117856928686678e+01
1.208059445555873168e+01,3.276280778833557150e+01
1.210060017147756461e+01,3.100027519102392048e+01
1.212060588739639932e+01,2.882732213373556363e+01
1.214061160331523226e+01,2.767913677492764535e+01
1.216061731923406697e+01,2.680566866407475501e+01
1.218062303515290168e+01,2.513853909301715106e+01
1.220062875107173461e+01,2.335919274951281466e+01
1.222063446699056932e+01,2.116398262961375920e+01
1.224064018290940226e+01,2.017314125043309403e+01
1.226064589882823697e+01,1.906152562441542031e+01
1.228065161474707168e+01,1.741773303685151930e+01
1.230065733066590461e+01,1.707089968827977344e+01
1.232066304658473754e+01,1.598105028485830559e+01
1.234066876250357225e+01,1.538480306182210988e+01
1.236067447842240696e+01,1.512219791707820704e+01
1.238068019434123990e+01,1.417189773725081281e+01
1.240068591026007461e+01,1.362977773948867011e+01
1.242069162617890754e+01,1.292923123905948657e+01
1.244069734209774225e+01,1.290020330373553392e+01
1.246070305801657696e+01,1.192018683708306881e+01
1.248070877393540989e+01,1.166842643319173867e+01
1.250071448985424460e+01,1.144384916830784960e+01
1.252072020577307754e+01,1.045585024764507409e+01
1.254072592169191225e+01,1.120207886434116773e+01
1.256073163761074696e+01,1.102974811590727811e+01
1.258073735352957989e+01,1.165542108714670100e+01
1.260074306944841460e+01,1.060080585038037171e+01
1.262074878536724754e+01,1.071835167891569363e+01
1.264075450128608225e+01,1.163798773655421037e+01
1.266076021720491518e+01,1.210627980856336627e+01
1.268076593312374989e+01,1.189987147835911685e+01
1.270077164904258282e+01,1.214050782512727800e+01
1.272077736496141753e+01,1.238764781966983008e+01
1.274078308088025224e+01,1.263204038654583172e+01
1.276078879679908518e+01,1.267568794068954396e+01
1.278079451271791989e+01,1.364615149269634031e+01
1.280080022863675282e+01,1.299029146446451932e+01
1.282080594455558753e+01,1.365647027670871694e+01
1.284081166047442224e+01,1.395362580037506461e+01
1.286081737639325517e+01,1.339892638487357779e+01
1.288082309231208988e+01,1.379935023715014886e+01
1.290082880823092282e+01,1.448174766482868314e+01
1.292083452414975753e+01,1.524100416181065043e+01
1.294084024006859224e+01,1.523417230185601490e+01
1.296084595598742517e+01,1.633760978310922241e+01
1.298085167190625810e+01,1.579678279411587205e+01
1.300085738782509281e+01,1.620262319625065572e+01
1.302086310374392752e+01,1.693314318993997247e+01
1.304086881966276046e+01,1.708336118989031505e+01
1.306087453558159517e+01,1.858045662536449072e+01
1.308088025150042810e+01,1.799688834601412779e+01
1.310088596741926281e+01,1.898248782583546657e+01
1.312089168333809752e+01,1.955629429862608504e+01
1.314089739925693046e+01,2.022203047410746279e+01
1.316090311517576517e+01,2.012746250079067067e+01
1.318090883109459810e+01,2.098733737303512470e+01
1.320091454701343281e+01,2.118302524079016536e+01
1.322092026293226752e+01,2.197439240705045904e+01
1.324092597885110045e+01,2.278791101638717365e+01
1.326093169476993339e+01,2.264227899103495645e+01
1.328093741068876810e+01,2.377717272324462527e+01
1.330094312660760281e+01,2.371273080748784423e+01
1.332094884252643574e+01,2.499128678264117909e+01
1.334095455844527045e+01,2.603543457369432446e+01
1.336096027436410338e+01,2.595868216983614118e+01
1.338096599028293809e+01,2.745407196643591874e+01
1.340097170620177280e+01,2.747632218849727792e+01
1.342097742212060574e+01,2.807027499774926937e+01
1.344098313803944045e+01,2.897343585841814217e+01
1.346098885395827338e+01,2.906823139498775532e+01
1.348099456987710809e+01,2.995456914869726361e+01
1.350100028579594280e+01,3.103695742680876535e+01
1.352100600171477573e+01,3.145634813409835218e+01
1.354101171763361044e+01,3.264666946966769245e+01
1.356101743355244338e+01,3.309165700641338503e+01
1.358102314947127809e+01,3.408411157045175344e+01
1.360102886539011102e+01,3.514446210671773230e+01
1.362103458130894573e+01,3.610936227703466983e+01
1.364104029722777867e+01,3.712905851313212224e+01
1.366104601314661338e+01,3.835186999206720060e+01
1.368105172906544809e+01,3.856047416464519273e+01
1.370105744498428102e+01,3.978323872500413927e+01
1.372106316090311573e+01,4.048198646895690445e+01
1.374106887682194866e+01,4.195902809097664488e+01
1.376107459274078337e+01,4.278097005427849098e+01
1.378108030865961808e+01,4.225321674427190999e+01
1.380108602457845102e+01,4.458711828271896138e+01
1.382109174049728573e+01,4.460193105660841439e+01
1.384109745641611866e+01,4.581675730925378787e+01
1.386110317233495337e+01,4.681204582422217442e+01
1.388110888825378808e+01,4.676826972764988710e+01
1.390111460417262101e+01,4.808370292544763913e+01
1.392112032009145395e+01,4.937089007497254300e+01
1.394112603601028866e+01,4.969377226701765693e+01
1.396113175192912337e+01,4.911538358063494769e+01
1.398113746784795630e+01,5.050020429985291770e+01
1.400114318376679101e+01,5.141310356247353042e+01
1.402114889968562395e+01,5.011594191749777849e+01
1.404115461560445866e+01,5.092168551186710346e+01
1.406116033152329337e+01,5.093152158576442901e+01
1.408116604744212630e+01,5.114639388847440671e+01
1.410117176336095923e+01,5.037228271766835519e+01
1.412117747927979394e+01,5.008492125832426467e+01
1.414118319519862865e+01,4.947773751585718571e+01
1.416118891111746336e+01,4.912014210398275793e+01
1.418119462703629630e+01,4.778483354319624965e+01
1.420120034295512923e+01,4.743052562162215935e+01
1.422120605887396394e+01,4.720006818297613194e+01
1.424121177479279865e+01,4.594267985306449020e+01
1.426121749071163336e+01,4.432137257517080542e+01
1.428122320663046629e+01,4.301250358320410783e+01
1.430122892254929923e+01,4.136244420269294153e+01
1.432123463846813394e+01,4.059385435511491380e+01
1.434124035438696865e+01,3.920856437834896013e+01
1.436124607030580158e+01,3.881902560116316891e+01
1.438125178622463629e+01,3.677049481646068330e+01
1.440125750214346922e+01,3.617908615200376943e+01
1.442126321806230393e+01,3.545961690006569000e+01
1.444126893398113864e+01,3.496063729425628708e+01
1.446127464989997158e+01,3.355086789472274944e+01
1.448128036581880451e+01,3.351944494067456759e+01
1.450128608173763922e+01,3.311445313877850793e+01
1.452129179765647393e+01,3.248495835530662390e+01
1.454129751357530864e+01,3.217319244511615040e+01
1.456130322949414158e+01,3.240817533815106799e+01
1.458130894541297451e+01,3.275370543089310615e+01
1.460131466133180922e+01,3.181814564047198957e+01
1.462132037725064393e+01,3.132954737533352230e+01
1.464132609316947686e+01,3.133391791591373376e+01
1.466133180908831157e+01,3.198507946838786253e+01
1.468133752500714451e+01,3.121089720051328698e+01
1.470134324092597922e+01,3.078754898026795317e+01
1.472134895684481393e+01,3.090031100229975181e+01
1.474135467276364686e+01,2.923750830456329908e+01
1.476136038868247979e+01,2.926326625937110393e+01
1.478136610460131450e+01,2.863910808325081803e+01
1.480137182052014921e+01,2.865968564426565024e+01
1.482137753643898392e+01,2.716315678348223983e+01
1.484138325235781686e+01,2.611598793916712324e+01
1.486138896827664979e+01,2.492032218736612492e+01
1.488139468419548450e+01,2.502388540679799078e+01
1.490140040011431921e+01,2.332051781516400979e+01
1.492140611603315392e+01,2.194869734245490989e+01
1.494141183195198685e+01,2.102149302111726570e+01
1.496141754787081979e+01,1.936942401717465501e+01
1.498142326378965450e+01,1.826421462001047757e+01
1.500142897970848921e+01,1.749597862086667632e+01
1.502143469562732214e+01,1.674452582886959107e+01
1.504144041154615508e+01,1.475287404066339469e+01
1.506144612746498979e+01,1.389304540080122052e+01
1.508145184338382450e+01,1.413526983712468521e+01
1.510145755930265921e+01,1.228841588081844272e+01
1.512146327522149214e+01,1.126779787736401950e+01
1.514146899114032507e+01,1.036888797383473992e+01
1.516147470705915978e+01,1.002797453031093866e+01
1.518148042297799449e+01,9.689333319909916753e+00
1.520148613889682920e+01,8.832473743377301290e+00
1.522149185481566214e+01,8.612104983077031761e+00
1.524149757073449507e+01,8.225214238461310501e+00
1.526150328665332978e+01,8.820416391454532601e+00
1.528150900257216449e+01,7.340722228877437416e+00
1.530151471849099742e+01,7.728169677604867616e+00
1.532152043440983036e+01,7.883908858923934559e+00
1.534152615032866507e+01,7.691820991900971016e+00
1.536153186624749978e+01,6.989140526379808982e+00
1.538153758216633449e+01,7.011924720920104548e+00
1.540154329808516742e+01,7.313481986672988100e+00
1.542154901400400036e+01,6.636942427744097373e+00
1.544155472992283507e+01,6.962365077690164661e+00
1.546156044584166978e+01,7.542262326928441674e+00
1.548156616176050449e+01,6.113245012105673837e+00
1.550157187767933742e+01,6.765049397613433158e+00
1.552157759359817035e+01,7.468239293225719777e+00
1.554158330951700506e+01,7.485789910663754654e+00
1.556158902543583977e+01,6.873852090830828487e+00
1.558159474135467271e+01,7.032241537220176752e+00
1.560160045727350742e+01,7.185494822418943883e+00
1.562160617319234035e+01,7.800945567718322593e+00
1.564161188911117506e+01,8.195597010353495193e+00
1.566161760503000977e+01,7.143686190800652369e+00
1.568162332094884270e+01,7.750598531426746263e+00
1.570162903686767564e+01,7.926149499352055372e+00
1.572163475278651035e+01,7.842759340025910575e+00
1.574164046870534506e+01,8.482606458775080682e+00
1.576164618462417977e+01,8.107973372044096294e+00
1.578165190054301270e+01,8.511625507581527472e+00
1.580165761646184563e+01,7.715761854525747587e+00
1.582166333238068034e+01,8.277183607997848469e+00
1.584166904829951505e+01,8.707444658978156227e+00
1.586167476421834799e+01,8.532597704901423441e+00
1.588168048013718270e+01,8.641267426324388268e+00
1.590168619605601563e+01,8.913304681941072616e+00
1.592169191197485034e+01,8.862188790640390224e+00
1.594169762789368505e+01,9.477751920878340286e+00
1.596170334381251799e+01,9.801061968765798937e+00
1.598170905973135092e+01,9.433069661238558723e+00
1.600171477565018563e+01,9.835887726009842069e+00
1.602172049156902034e+01,1.039705393093050390e+01
1.604172620748785505e+01,1.063352449978148861e+01
1.606173192340668976e+01,1.077353465406771349e+01
1.608173763932552092e+01,1.060484718676889848e+01
1.610174335524435563e+01,1.223028061068624162e+01
1.612174907116319034e+01,1.173297576387287044e+01
1.614175478708202505e+01,1.215533322283076600e+01
1.616176050300085620e+01,1.232928483127582453e+01
1.618176621891969091e+01,1.197421695590607271e+01
1.620177193483852562e+01,1.293706547333149715e+01
1.622177765075736033e+01,1.328798756478320797e+01
1.624178336667619504e+01,1.399939414167102036e+01
1.626178908259502620e+01,1.396855973144500673e+01
1.628179479851386091e+01,1.365200330758521829e+01
1.630180051443269562e+01,1.423931065961474296e+01
1.632180623035153033e+01,1.523553890227598906e+01
1.634181194627036149e+01,1.524616941817816240e+01
1.636181766218919620e+01,1.567937847945379914e+01
1.638182337810803091e+01,1.650034734100771772e+01
1.640182909402686562e+01,1.717644141528390378e+01
1.642183480994570033e+01,1.597630639073894088e+01
1.644184052586453504e+01,1.761714723105523461e+01
1.646184624178336620e+01,1.761357095207749524e+01
1.648185195770220091e+01,1.808807558340237875e+01
1.650185767362103562e+01,1.806564928314564611e+01
1.652186338953986677e+01,1.866195254944054227e+01
1.654186910545870148e+01,1.914650708076201724e+01
1.656187482137753619e+01,1.993334838533985831e+01
1.658188053729637090e+01,2.126823508883177283e+01
1.660188625321520561e+01,2.088404541431598460e+01
1.662189196913404032e+01,2.101863396213478552e+01
1.664189768505287148e+01,2.099695160247345882e+01
1.666190340097170619e+01,2.193917274488733327e+01
1.668190911689054090e+01,2.121118886028467898e+01
1.670191483280937561e+01,2.264601568931107778e+01
1.672192054872820677e+01,2.254039705909145397e+01
1.674192626464704148e+01,2.226953384484450282e+01
1.676193198056587619e+01,2.212424021559682075e+01
1.678193769648471090e+01,2.230036517639427274e+01
1.680194341240354561e+01,2.187808632666739328e+01
1.682194912832238032e+01,2.230591446427588664e+01
1.684195484424121148e+01,2.164553085114166109e+01
1.686196056016004619e+01,2.033346431654494779e+01
1.688196627607888090e+01,2.058906612212111753e+01
1.690197199199771205e+01,2.095218121856474625e+01
1.692197770791654676e+01,2.009817119776881711e+01
1.694198342383538147e+01,1.935032400855638812e+01
1.696198913975421618e+01,1.955673888359563506e+01
1.698199485567305089e+01,1.866318570278781053e+01
1.700200057159188560e+01,1.780303158623778614e+01
1.702200628751071676e+01,1.745640808928289545e+01
1.704201200342955147e+01,1.765159485169830234e+01
1.706201771934838618e+01,1.709868008048869115e+01
1.708202343526722089e+01,1.721779567208450601e+01
1.710202915118605205e+01,1.564387710182708346e+01
1.712203486710488676e+01,1.681194839084393067e+01
1.714204058302372147e+01,1.560850913603911927e+01
1.716204629894255618e+01,1.548539505336999511e+01
1.718205201486139089e+01,1.587772118520545206e+01
1.720205773078022204e+01,1.487360520505750650e+01
1.722206344669905675e+01,1.454149983047932437e+01
1.724206916261789146e+01,1.420651585955986107e+01
1.726207487853672617e+01,1.398304738254101665e+01
1.728208059445555733e+01,1.323763061377012917e+01
1.730208631037439204e+01,1.267620975723437660e+01
1.732209202629322675e+01,1.260930453725823597e+01
1.734209774221206146e+01,1.197455566853767017e+01
1.736210345813089617e+01,1.207947460239824977e+01
1.738210917404973088e+01,1.175670623509275359e+01
1.740211488996856204e+01,1.190452401372209579e+01
1.742212060588739675e+01,1.137056144744377839e+01
1.744212632180623146e+01,1.065617067070019708e+01
1.746213203772506262e+01,1.078708737345805702e+01
1.748213775364389733e+01,1.027869195268848301e+01
1.750214346956273204e+01,1.055651809444277767e+01
1.752214918548156675e+01,1.109173947735727417e+01
1.754215490140040146e+01,1.048091044347488143e+01
1.756216061731923617e+01,1.096755913155915607e+01
1.758216633323806732e+01,1.164282802410726347e+01
1.760217204915690203e+01,1.111878537550788515e+01
1.762217776507573674e+01,1.113328878932028765e+01
1.764218348099457145e+01,1.175252023445204408e+01
1.766218919691340261e+01,1.114111324812471437e+01
1.768219491283223732e+01,1.264579379578955809e+01
1.770220062875107203e+01,1.224443259638567305e+01
1.772220634466990674e+01,1.218266778173433629e+01
1.774221206058874145e+01,1.270488941957184181e+01
1.776221777650757616e+01,1.313540132232377999e+01
1.778222349242640732e+01,1.379813067367357604e+01
1.780222920834524203e+01,1.421142962348976724e+01
1.782223492426407674e+01,1.396009399847241639e+01
1.784224064018290790e+01,1.496221403046397214e+01
1.786224635610174261e+01,1.545271519774776792e+01
1.788225207202057732e+01,1.578993527032601563e+01
1.790225778793941203e+01,1.559167829470070643e+01
1.792226350385824674e+01,1.641451248795203455e+01
1.794226921977708145e+01,1.592099765900474395e+01
1.796227493569591260e+01,1.732411476695430252e+01
