angle,intensity
1.000000000000000000e+01,8.215059566420548265e+01
1.002000571591883471e+01,8.251089850037385531e+01
1.004001143183766764e+01,8.249363490045905678e+01
1.006001714775650235e+01,8.223822567937152428e+01
1.008002286367533529e+01,8.090140740495473892e+01
1.010002857959417000e+01,8.103226308032949987e+01
1.012003429551300293e+01,7.972068408156650321e+01
1.014004001143183764e+01,7.900076020287086465e+01
1.016004572735067235e+01,7.678894074120438518e+01
1.018005144326950528e+01,7.597801695626760932e+01
1.020005715918833999e+01,7.424801394665888665e+01
1.022006287510717293e+01,7.122007915042318871e+01
1.024006859102600764e+01,6.897004529355567115e+01
1.026007430694484057e+01,6.648499751374723132e+01
1.028008002286367528e+01,6.340460856775857224e+01
1.030008573878250999e+01,6.064293641379451572e+01
1.032009145470134293e+01,5.623097456119556625e+01
1.034009717062017764e+01,5.340318879437361943e+01
1.036010288653901057e+01,4.913103330925343926e+01
1.038010860245784528e+01,4.545962030841363344e+01
1.040011431837667999e+01,4.124238582883324966e+01
1.042012003429551292e+01,3.837806541461478105e+01
1.044012575021434763e+01,3.492998094706506862e+01
1.046013146613318057e+01,3.128688595006561357e+01
1.048013718205201528e+01,2.814446957785982661e+01
1.050014289797084821e+01,2.509937528850762334e+01
1.052014861388968292e+01,2.308128832609483894e+01
1.054015432980851585e+01,2.094482702387874795e+01
1.056016004572735056e+01,1.927371860386056923e+01
1.058016576164618527e+01,1.689087708377637753e+01
1.060017147756501821e+01,1.614476986890171872e+01
1.062017719348385292e+01,1.485867147304703373e+01
1.064018290940268585e+01,1.371577537534472491e+01
1.066018862532152056e+01,1.201743296673845762e+01
1.068019434124035527e+01,1.207979220365942830e+01
1.070020005715918820e+01,1.001252580517910218e+01
1.072020577307802292e+01,1.019785019018750916e+01
1.074021148899685585e+01,9.382401218684076838e+00
1.076021720491569056e+01,8.737877479357827326e+00
1.078022292083452349e+01,7.492439785851489731e+00
1.080022863675335820e+01,7.171728055675471225e+00
1.082023435267219291e+01,7.839342337823536511e+00
1.084024006859102585e+01,7.109813354193866175e+00
1.086024578450986056e+01,7.131181737436117274e+00
1.088025150042869349e+01,7.315639306949576870e+00
1.090025721634752820e+01,6.303652568233870213e+00
1.092026293226636113e+01,5.752695941242941480e+00
1.094026864818519584e+01,6.623752169816311763e+00
1.096027436410403055e+01,5.378790007967472420e+00
1.098028008002286349e+01,5.504243886209104986e+00
1.100028579594169820e+01,5.206209794900264143e+00
1.102029151186053113e+01,5.409868613904540879e+00
1.104029722777936584e+01,5.538511423929372235e+00
1.106030294369819877e+01,5.425216631747569629e+00
1.108030865961703348e+01,4.766446031927657145e+00
1.110031437553586819e+01,4.983070179222332641e+00
1.112032009145470113e+01,4.669191183513797583e+00
1.114032580737353584e+01,4.675704407239398286e+00
1.116033152329236877e+01,4.539667423707260063e+00
1.118033723921120348e+01,4.539729129018923004e+00
1.120034295513003642e+01,4.712409724431442015e+00
1.122034867104887113e+01,3.901022205212021809e+00
1.124035438696770584e+01,3.475372027404666220e+00
1.126036010288653877e+01,3.423678362495031546e+00
1.128036581880537348e+01,4.345285091887073570e+00
1.130037153472420641e+01,3.652811270404999977e+00
1.132037725064304112e+01,3.833277021927391282e+00
1.134038296656187583e+01,3.054813196907506523e+00
1.136038868248070877e+01,4.189393221006231016e+00
1.138039439839954348e+01,2.984823158416660682e+00
1.140040011431837641e+01,3.429484598587861033e+00
1.142040583023721112e+01,3.361662704384963618e+00
1.144041154615604405e+01,3.956874498340734014e+00
1.146041726207487876e+01,3.157665116275061745e+00
1.148042297799371170e+01,3.576219090258710764e+00
1.150042869391254641e+01,3.108438423632748027e+00
1.152043440983138112e+01,3.043436262720430108e+00
1.154044012575021405e+01,2.740165838770442175e+00
1.156044584166904876e+01,3.039535852213221201e+00
1.158045155758788169e+01,3.189655381580927429e+00
1.160045727350671640e+01,2.966289575321042982e+00
1.162046298942555111e+01,3.261082765504649927e+00
1.164046870534438405e+01,3.113530901011219321e+00
1.166047442126321876e+01,2.676749733233032558e+00
1.168048013718205169e+01,3.211852238795072978e+00
1.170048585310088640e+01,3.622690071289354385e+00
1.172049156901971934e+01,2.689495506644106193e+00
1.174049728493855405e+01,3.082479039447798108e+00
1.176050300085738698e+01,2.412486095461205515e+00
1.178050871677622169e+01,3.773829734207870157e+00
1.180051443269505640e+01,3.249822545777081739e+00
1.182052014861388933e+01,2.787886525370430135e+00
1.184052586453272404e+01,2.708516095350578023e+00
1.186053158045155698e+01,3.500865094819448409e+00
1.188053729637039169e+01,2.980973010792183686e+00
1.190054301228922640e+01,2.663718209537004888e+00
1.192054872820805933e+01,3.097308518416747258e+00
1.194055444412689404e+01,2.981811519614396389e+00
1.196056016004572697e+01,3.034960149179226185e+00
1.198056587596456168e+01,2.508712589381019153e+00
1.200057159188339639e+01,2.258865454266631545e+00
1.202057730780222933e+01,2.989032155963942117e+00
1.204058302372106226e+01,2.947392106812822377e+00
1.206058873963989697e+01,2.775082116629693729e+00
1.208059445555873168e+01,3.244189434060194444e+00
1.210060017147756461e+01,2.569263491632510554e+00
1.212060588739639932e+01,3.541172882290148038e+00
1.214061160331523226e+01,2.454786258763778761e+00
1.216061731923406697e+01,3.155346076443116043e+00
1.218062303515290168e+01,2.816055312006910061e+00
1.220062875107173461e+01,3.372445142362968440e+00
1.222063446699056932e+01,3.137388005927614465e+00
1.224064018290940226e+01,3.731372252789501243e+00
1.226064589882823697e+01,2.739638780731729728e+00
1.228065161474707168e+01,2.059505124576816115e+00
1.230065733066590461e+01,3.174539088489867211e+00
1.232066304658473754e+01,3.577046268666127293e+00
1.234066876250357225e+01,2.446429610775266106e+00
1.236067447842240696e+01,3.348976144603236449e+00
1.238068019434123990e+01,3.098806492297668136e+00
1.240068591026007461e+01,3.308430751215682530e+00
1.242069162617890754e+01,3.559558522735491337e+00
1.244069734209774225e+01,2.162933218492779197e+00
1.246070305801657696e+01,3.134577829849969799e+00
1.248070877393540989e+01,2.889745696325564772e+00
1.250071448985424460e+01,3.183787948905183907e+00
1.252072020577307754e+01,3.079554700684403290e+00
1.254072592169191225e+01,3.571026636858166459e+00
1.256073163761074696e+01,2.934964638811613291e+00
1.258073735352957989e+01,3.631214714793633558e+00
1.260074306944841460e+01,3.463187515448500342e+00
1.262074878536724754e+01,2.229999245912619887e+00
1.264075450128608225e+01,2.792621582401484392e+00
1.266076021720491518e+01,3.016789788488669188e+00
1.268076593312374989e+01,3.099224904075235987e+00
1.270077164904258282e+01,2.882303609916332832e+00
1.272077736496141753e+01,2.533512397189709109e+00
1.274078308088025224e+01,3.967520008700948786e+00
1.276078879679908518e+01,3.016856854721693182e+00
1.278079451271791989e+01,3.716028034282290449e+00
1.280080022863675282e+01,3.104444428513959853e+00
1.282080594455558753e+01,2.845452093492469636e+00
1.284081166047442224e+01,3.059768772909330359e+00
1.286081737639325517e+01,2.829974546563094329e+00
1.288082309231208988e+01,2.412538810974034220e+00
1.290082880823092282e+01,3.692524604345754469e+00
1.292083452414975753e+01,3.565359077649091102e+00
1.294084024006859224e+01,4.137974606473069805e+00
1.296084595598742517e+01,3.527338945567282558e+00
1.298085167190625810e+01,3.235002016340134734e+00
1.300085738782509281e+01,3.967352100466587039e+00
1.302086310374392752e+01,3.024413126073042246e+00
1.304086881966276046e+01,3.194101287329996097e+00
1.306087453558159517e+01,3.828284648258887479e+00
1.308088025150042810e+01,3.604776998544433564e+00
1.310088596741926281e+01,2.828555918664778623e+00
1.312089168333809752e+01,3.692890573098272178e+00
1.314089739925693046e+01,3.584763291786445372e+00
1.316090311517576517e+01,3.174859299717051719e+00
1.318090883109459810e+01,4.344662804570433856e+00
1.320091454701343281e+01,3.759713323143892616e+00
1.322092026293226752e+01,3.993041383090793595e+00
1.324092597885110045e+01,3.459708711194641850e+00
1.326093169476993339e+01,4.286160048462008376e+00
1.328093741068876810e+01,3.892922149985488467e+00
1.330094312660760281e+01,4.277240866401394115e+00
1.332094884252643574e+01,4.918957974847066872e+00
1.334095455844527045e+01,5.112594397900120491e+00
1.336096027436410338e+01,5.240643168040470812e+00
1.338096599028293809e+01,5.303997502414317111e+00
1.340097170620177280e+01,4.747462980274281819e+00
1.342097742212060574e+01,5.929092462806506703e+00
1.344098313803944045e+01,4.873694429873907552e+00
1.346098885395827338e+01,6.110859063750397446e+00
1.348099456987710809e+01,6.474564530365134019e+00
1.350100028579594280e+01,5.837199987363444365e+00
1.352100600171477573e+01,6.457082493104221221e+00
1.354101171763361044e+01,5.902261180177511335e+00
1.356101743355244338e+01,6.097205055423231101e+00
1.358102314947127809e+01,6.382889467018623364e+00
1.360102886539011102e+01,6.616298237732452847e+00
1.362103458130894573e+01,7.495519719908165790e+00
1.364104029722777867e+01,7.241524122876318970e+00
1.366104601314661338e+01,7.672156990183126801e+00
1.368105172906544809e+01,8.017497729188649558e+00
1.370105744498428102e+01,8.130211628746168984e+00
1.372106316090311573e+01,8.722240230217101598e+00
1.374106887682194866e+01,8.635708114953143166e+00
1.376107459274078337e+01,8.634426066685751522e+00
1.378108030865961808e+01,8.800155365149958442e+00
1.380108602457845102e+01,1.019284425129343497e+01
1.382109174049728573e+01,9.371887693036692113e+00
1.384109745641611866e+01,9.823154351062221679e+00
1.386110317233495337e+01,1.038612051891691479e+01
1.388110888825378808e+01,1.125888797652283024e+01
1.390111460417262101e+01,1.115030652311154569e+01
1.392112032009145395e+01,1.132075410881259003e+01
1.394112603601028866e+01,1.136923097875155086e+01
1.396113175192912337e+01,1.195210141664423276e+01
1.398113746784795630e+01,1.287317004124463793e+01
1.400114318376679101e+01,1.293859270075703982e+01
1.402114889968562395e+01,1.342320982313433220e+01
1.404115461560445866e+01,1.382627170405047323e+01
1.406116033152329337e+01,1.416993392666741514e+01
1.408116604744212630e+01,1.426845614244281890e+01
1.410117176336095923e+01,1.437817761392578397e+01
1.412117747927979394e+01,1.547650476922322227e+01
1.414118319519862865e+01,1.579224818108558281e+01
1.416118891111746336e+01,1.591135559422834334e+01
1.418119462703629630e+01,1.695261548612933211e+01
1.420120034295512923e+01,1.825051050996889757e+01
1.422120605887396394e+01,1.831859217676251461e+01
1.424121177479279865e+01,1.802456992847808692e+01
1.426121749071163336e+01,1.843579630929881574e+01
1.428122320663046629e+01,1.997751983584483071e+01
1.430122892254929923e+01,1.973660334189872145e+01
1.432123463846813394e+01,2.100262836012129597e+01
1.434124035438696865e+01,2.213043525102810349e+01
1.436124607030580158e+01,2.187049033156412037e+01
1.438125178622463629e+01,2.272030932048311058e+01
1.440125750214346922e+01,2.406992110904266724e+01
1.442126321806230393e+01,2.429274635930192972e+01
1.444126893398113864e+01,2.470372374055574838e+01
1.446127464989997158e+01,2.557345694081116960e+01
1.448128036581880451e+01,2.616886882771854772e+01
1.450128608173763922e+01,2.778021238576349461e+01
1.452129179765647393e+01,2.847351444180150892e+01
1.454129751357530864e+01,2.845432226504921402e+01
1.456130322949414158e+01,2.997723532753590803e+01
1.458130894541297451e+01,3.044925988622304658e+01
1.460131466133180922e+01,3.133562767263013882e+01
1.462132037725064393e+01,3.185601951744732574e+01
1.464132609316947686e+01,3.352621998488160671e+01
1.466133180908831157e+01,3.431961882421567367e+01
1.468133752500714451e+01,3.483518086176717787e+01
1.470134324092597922e+01,3.610463601517753318e+01
1.472134895684481393e+01,3.624855640819113489e+01
1.474135467276364686e+01,3.816539244758968152e+01
1.476136038868247979e+01,3.877251003518490791e+01
1.478136610460131450e+01,3.968457612895529962e+01
1.480137182052014921e+01,4.075342555703883818e+01
1.482137753643898392e+01,4.217467765338429331e+01
1.484138325235781686e+01,4.350149794745010468e+01
1.486138896827664979e+01,4.439217482285772576e+01
1.488139468419548450e+01,4.598975622150334175e+01
1.490140040011431921e+01,4.697420770412326618e+01
1.492140611603315392e+01,4.737510213032618367e+01
1.494141183195198685e+01,4.933094209984795242e+01
1.496141754787081979e+01,4.995242509252629759e+01
1.498142326378965450e+01,5.142360658423565667e+01
1.500142897970848921e+01,5.308331069640241395e+01
1.502143469562732214e+01,5.495240398170778917e+01
1.504144041154615508e+01,5.566570895998408020e+01
1.506144612746498979e+01,5.673358035030251756e+01
1.508145184338382450e+01,5.730720332231620517e+01
1.510145755930265921e+01,5.936847637430302882e+01
1.512146327522149214e+01,6.008698387722886025e+01
1.514146899114032507e+01,6.087932708291845074e+01
1.516147470705915978e+01,6.195110128373209335e+01
1.518148042297799449e+01,6.265186956711494304e+01
1.520148613889682920e+01,6.357757856959145926e+01
1.522149185481566214e+01,6.478844914303266478e+01
1.524149757073449507e+01,6.484103791296931263e+01
1.526150328665332978e+01,6.529090266717253144e+01
1.528150900257216449e+01,6.480311883637108394e+01
1.530151471849099742e+01,6.439141996472970675e+01
1.532152043440983036e+01,6.494847729213941534e+01
1.534152615032866507e+01,6.361825240110887592e+01
1.536153186624749978e+01,6.327606728898273047e+01
1.538153758216633449e+01,6.101525648888428321e+01
1.540154329808516742e+01,5.982383411699335340e+01
1.542154901400400036e+01,5.856072276479419259e+01
1.544155472992283507e+01,5.572704185456584014e+01
1.546156044584166978e+01,5.300301669253691728e+01
1.548156616176050449e+01,5.108990017499629488e+01
1.550157187767933742e+01,4.747428997174235832e+01
1.552157759359817035e+01,4.467457887726658328e+01
1.554158330951700506e+01,4.185401334997081335e+01
1.556158902543583977e+01,3.852374805436080862e+01
1.558159474135467271e+01,3.558888473471650116e+01
1.560160045727350742e+01,3.268316720978955914e+01
1.562160617319234035e+01,2.985448622091428916e+01
1.564161188911117506e+01,2.747595896137912774e+01
1.566161760503000977e+01,2.569591083106283946e+01
1.568162332094884270e+01,2.369906936460073510e+01
1.570162903686767564e+01,2.232751906425399469e+01
1.572163475278651035e+01,2.036721426531109103e+01
1.574164046870534506e+01,1.923299929052092949e+01
1.576164618462417977e+01,1.728280208645067262e+01
1.578165190054301270e+01,1.610169293530139356e+01
1.580165761646184563e+01,1.605599703315742843e+01
1.582166333238068034e+01,1.561429111319527863e+01
1.584166904829951505e+01,1.538975613535090581e+01
1.586167476421834799e+01,1.429545055063288572e+01
1.588168048013718270e+01,1.396185918197818054e+01
1.590168619605601563e+01,1.351238234444294406e+01
1.592169191197485034e+01,1.249347516006132963e+01
1.594169762789368505e+01,1.277948395180672314e+01
1.596170334381251799e+01,1.210505050028653073e+01
1.598170905973135092e+01,1.221344031687844733e+01
1.600171477565018563e+01,1.321455522210279199e+01
1.602172049156902034e+01,1.239241241947611272e+01
1.604172620748785505e+01,1.231989125673741725e+01
1.606173192340668976e+01,1.260915878620819441e+01
1.608173763932552092e+01,1.262580190321404672e+01
1.610174335524435563e+01,1.245380826121460771e+01
1.612174907116319034e+01,1.284868964265139013e+01
1.614175478708202505e+01,1.260705334502046782e+01
1.616176050300085620e+01,1.215827780401916414e+01
1.618176621891969091e+01,1.278797475326367206e+01
1.620177193483852562e+01,1.269582075912087760e+01
1.622177765075736033e+01,1.317801164444228590e+01
1.624178336667619504e+01,1.308359208506271187e+01
1.626178908259502620e+01,1.381004368147312178e+01
1.628179479851386091e+01,1.325342762287636589e+01
1.630180051443269562e+01,1.326819885814083477e+01
1.632180623035153033e+01,1.400043641478726109e+01
1.634181194627036149e+01,1.406046198785607615e+01
1.636181766218919620e+01,1.315195055644115030e+01
1.638182337810803091e+01,1.334680945894727877e+01
1.640182909402686562e+01,1.375812812181887068e+01
1.642183480994570033e+01,1.365217816551957597e+01
1.644184052586453504e+01,1.314823166033976420e+01
1.646184624178336620e+01,1.313516953910592377e+01
1.648185195770220091e+01,1.433658636164966182e+01
1.650185767362103562e+01,1.290546475329540144e+01
1.652186338953986677e+01,1.376358602573495737e+01
1.654186910545870148e+01,1.423422201540143384e+01
1.656187482137753619e+01,1.421758931829606709e+01
1.658188053729637090e+01,1.374444590852091785e+01
1.660188625321520561e+01,1.377348828961945770e+01
1.662189196913404032e+01,1.282994564156013162e+01
1.664189768505287148e+01,1.367888158333282789e+01
1.666190340097170619e+01,1.285195442807815169e+01
1.668190911689054090e+01,1.351187712829626975e+01
1.670191483280937561e+01,1.231605416009387710e+01
1.672192054872820677e+01,1.286074591574537607e+01
1.674192626464704148e+01,1.342620192787570232e+01
1.676193198056587619e+01,1.341951047452322499e+01
1.678193769648471090e+01,1.329859578086133887e+01
1.680194341240354561e+01,1.318855074472376110e+01
1.682194912832238032e+01,1.373386314351391491e+01
1.684195484424121148e+01,1.421790635961606952e+01
1.686196056016004619e+01,1.422316135048781938e+01
1.688196627607888090e+01,1.518771268386982243e+01
1.690197199199771205e+01,1.506706137600354722e+01
1.692197770791654676e+01,1.536684649734702823e+01
1.694198342383538147e+01,1.579271055712561989e+01
1.696198913975421618e+01,1.604598390090437476e+01
1.698199485567305089e+01,1.681055897324097614e+01
1.700200057159188560e+01,1.666236689901457169e+01
1.702200628751071676e+01,1.805193955518829796e+01
1.704201200342955147e+01,1.822907543765016669e+01
1.706201771934838618e+01,1.872701297344649873e+01
1.708202343526722089e+01,1.963484751089609404e+01
1.710202915118605205e+01,1.979625938121484197e+01
1.712203486710488676e+01,2.051418381246411826e+01
1.714204058302372147e+01,2.041078216964828940e+01
1.716204629894255618e+01,2.134138988463556075e+01
1.718205201486139089e+01,2.224627702458016643e+01
1.720205773078022204e+01,2.261780831770272826e+01
1.722206344669905675e+01,2.337647024390926020e+01
1.724206916261789146e+01,2.450159231268937532e+01
1.726207487853672617e+01,2.548707133227223665e+01
1.728208059445555733e+01,2.595921895279229830e+01
1.730208631037439204e+01,2.632618431045998619e+01
1.732209202629322675e+01,2.720594619022238447e+01
1.734209774221206146e+01,2.788396043586983097e+01
1.736210345813089617e+01,2.888156788316966583e+01
1.738210917404973088e+01,2.949949078592319296e+01
1.740211488996856204e+01,3.022949145057147291e+01
1.742212060588739675e+01,3.224585146164498894e+01
1.744212632180623146e+01,3.250619565308893755e+01
1.746213203772506262e+01,3.376578837875432981e+01
1.748213775364389733e+01,3.445504464259903443e+01
1.750214346956273204e+01,3.580031241439667156e+01
1.752214918548156675e+01,3.693482405369104526e+01
1.754215490140040146e+01,3.718561452688820879e+01
1.756216061731923617e+01,3.790495383012310526e+01
1.758216633323806732e+01,3.960603304762803845e+01
1.760217204915690203e+01,4.034994836889984526e+01
1.762217776507573674e+01,4.151649151995592035e+01
1.764218348099457145e+01,4.265433300554373375e+01
1.766218919691340261e+01,4.402402947825268598e+01
1.768219491283223732e+01,4.432497263710450852e+01
1.770220062875107203e+01,4.445869061413200285e+01
1.772220634466990674e+01,4.546035974897750975e+01
1.774221206058874145e+01,4.619419780438911971e+01
1.776221777650757616e+01,4.837601748353752384e+01
1.778222349242640732e+01,4.802358281660768569e+01
1.780222920834524203e+01,4.889755505500122723e+01
1.782223492426407674e+01,4.954608838659395076e+01
1.784224064018290790e+01,4.902938251063531538e+01
1.786224635610174261e+01,4.983894035543184486e+01
1.788225207202057732e+01,4.937976434360081157e+01
1.790225778793941203e+01,4.921461127026356053e+01
1.792226350385824674e+01,4.844195524334713809e+01
1.794226921977708145e+01,4.830897373207692880e+01
1.796227493569591260e+01,4.735443231571716183e+01
