angle,intensity
1.000000000000000000e+01,4.993313656089885910e+01
1.002000571591883471e+01,5.060682315615779459e+01
1.004001143183766764e+01,4.951212714413116345e+01
1.006001714775650235e+01,4.974046830645129091e+01
1.008002286367533529e+01,4.917659597698517615e+01
1.010002857959417000e+01,4.833236723612624530e+01
1.012003429551300293e+01,4.837652393472507129e+01
1.014004001143183764e+01,4.723579929644353115e+01
1.016004572735067235e+01,4.623504283257545922e+01
1.018005144326950528e+01,4.512773743280495609e+01
1.020005715918833999e+01,4.364832321657341652e+01
1.022006287510717293e+01,4.196800906735935399e+01
1.024006859102600764e+01,3.940856421108451713e+01
1.026007430694484057e+01,3.792231181801823681e+01
1.028008002286367528e+01,3.510623636164864791e+01
1.030008573878250999e+01,3.210575639644944346e+01
1.032009145470134293e+01,2.906989354350235288e+01
1.034009717062017764e+01,2.654518612509503228e+01
1.036010288653901057e+01,2.263268742820092427e+01
1.038010860245784528e+01,2.004000143490242181e+01
1.040011431837667999e+01,1.749773827989218589e+01
1.042012003429551292e+01,1.577889164788590470e+01
1.044012575021434763e+01,1.317747009655276003e+01
1.046013146613318057e+01,1.127720836379251601e+01
1.048013718205201528e+01,9.975864475609075299e+00
1.050014289797084821e+01,8.932258122206839346e+00
1.052014861388968292e+01,8.357282527340567313e+00
1.054015432980851585e+01,7.818077217949996438e+00
1.056016004572735056e+01,6.449714766985777281e+00
1.058016576164618527e+01,6.342608994533609490e+00
1.060017147756501821e+01,5.722662516004898947e+00
1.062017719348385292e+01,4.922980058535066483e+00
1.064018290940268585e+01,5.221227218335359410e+00
1.066018862532152056e+01,4.734872551706890142e+00
1.068019434124035527e+01,5.126326705055165078e+00
1.070020005715918820e+01,4.468229992995846445e+00
1.072020577307802292e+01,4.350828169947690505e+00
1.074021148899685585e+01,4.157848692584604322e+00
1.076021720491569056e+01,4.871577475782259192e+00
1.078022292083452349e+01,4.814870473248311633e+00
1.080022863675335820e+01,4.741690121290977444e+00
1.082023435267219291e+01,4.887158686367142124e+00
1.084024006859102585e+01,3.548071147246671053e+00
1.086024578450986056e+01,4.059692561822016543e+00
1.088025150042869349e+01,4.102859963018327782e+00
1.090025721634752820e+01,4.130000020279049444e+00
1.092026293226636113e+01,4.688498539792236741e+00
1.094026864818519584e+01,4.104091097834687396e+00
1.096027436410403055e+01,4.765076408628942772e+00
1.098028008002286349e+01,4.064620903250125039e+00
1.100028579594169820e+01,4.671022450801698866e+00
1.102029151186053113e+01,3.613482494146278867e+00
1.104029722777936584e+01,3.816259493460118613e+00
1.106030294369819877e+01,4.541676246854322585e+00
1.108030865961703348e+01,3.911799920960139065e+00
1.110031437553586819e+01,3.941430871048732243e+00
1.112032009145470113e+01,3.811464861149524541e+00
1.114032580737353584e+01,4.172190590095558704e+00
1.116033152329236877e+01,4.139820334280400083e+00
1.118033723921120348e+01,3.906179090731094927e+00
1.120034295513003642e+01,3.698218426654185098e+00
1.122034867104887113e+01,4.155595748896680597e+00
1.124035438696770584e+01,3.884170474765910264e+00
1.126036010288653877e+01,3.664973377944490185e+00
1.128036581880537348e+01,3.590275874435834069e+00
1.130037153472420641e+01,3.956236500713730564e+00
1.132037725064304112e+01,3.750385637119932447e+00
1.134038296656187583e+01,4.460168460461408912e+00
1.136038868248070877e+01,4.218758447563107694e+00
1.138039439839954348e+01,4.213758625063374730e+00
1.140040011431837641e+01,4.007660723303772876e+00
1.142040583023721112e+01,4.154566283951934835e+00
1.144041154615604405e+01,4.423297038847405993e+00
1.146041726207487876e+01,4.406437207691730862e+00
1.148042297799371170e+01,4.321052779258851118e+00
1.150042869391254641e+01,3.803498829609297971e+00
1.152043440983138112e+01,3.970957141081516095e+00
1.154044012575021405e+01,3.824677334113370186e+00
1.156044584166904876e+01,3.814989305214033788e+00
1.158045155758788169e+01,4.289127326960933573e+00
1.160045727350671640e+01,4.146069521211097175e+00
1.162046298942555111e+01,4.539483083112235917e+00
1.164046870534438405e+01,3.822320417553974448e+00
1.166047442126321876e+01,4.395983268029720392e+00
1.168048013718205169e+01,4.071963722946661868e+00
1.170048585310088640e+01,4.544335669450139115e+00
1.172049156901971934e+01,4.661281362021847841e+00
1.174049728493855405e+01,4.774347649762407109e+00
1.176050300085738698e+01,4.266819004761581269e+00
1.178050871677622169e+01,5.075029978250263696e+00
1.180051443269505640e+01,4.359423941679715142e+00
1.182052014861388933e+01,3.787868625864798666e+00
1.184052586453272404e+01,4.919057280463250414e+00
1.186053158045155698e+01,4.004227354030108543e+00
1.188053729637039169e+01,3.886327454625101652e+00
1.190054301228922640e+01,3.982401519566455939e+00
1.192054872820805933e+01,4.674210722351404890e+00
1.194055444412689404e+01,4.785286986501677831e+00
1.196056016004572697e+01,4.697782047444529319e+00
1.198056587596456168e+01,4.804760765124949984e+00
1.200057159188339639e+01,5.058584902362750491e+00
1.202057730780222933e+01,5.078910607687951995e+00
1.204058302372106226e+01,5.066582839376633451e+00
1.206058873963989697e+01,4.929097662500749877e+00
1.208059445555873168e+01,5.116159917311069449e+00
1.210060017147756461e+01,5.023177442015514416e+00
1.212060588739639932e+01,4.367100189889228545e+00
1.214061160331523226e+01,5.089401024171530175e+00
1.216061731923406697e+01,5.082862550459052109e+00
1.218062303515290168e+01,5.887811329148272321e+00
1.220062875107173461e+01,5.536485133652725210e+00
1.222063446699056932e+01,5.102760895705820587e+00
1.224064018290940226e+01,4.879184933563196047e+00
1.226064589882823697e+01,4.442925012896829173e+00
1.228065161474707168e+01,5.858654723612078286e+00
1.230065733066590461e+01,4.612287606548815866e+00
1.232066304658473754e+01,5.097148824471473105e+00
1.234066876250357225e+01,5.561650434156135248e+00
1.236067447842240696e+01,6.271760628266066284e+00
1.238068019434123990e+01,6.366588745891220924e+00
1.240068591026007461e+01,5.583671088726954501e+00
1.242069162617890754e+01,5.069000206703718092e+00
1.244069734209774225e+01,5.655054036485369195e+00
1.246070305801657696e+01,5.992240930901720830e+00
1.248070877393540989e+01,6.448123090718217654e+00
1.250071448985424460e+01,6.168581813037498307e+00
1.252072020577307754e+01,6.532590475114812278e+00
1.254072592169191225e+01,6.050012393898784424e+00
1.256073163761074696e+01,6.115280379172532754e+00
1.258073735352957989e+01,6.044910070616436926e+00
1.260074306944841460e+01,6.369834039360604550e+00
1.262074878536724754e+01,6.430461198870480288e+00
1.264075450128608225e+01,6.873740883353784525e+00
1.266076021720491518e+01,6.229406212032854384e+00
1.268076593312374989e+01,6.974312018747641062e+00
1.270077164904258282e+01,7.695728735526158992e+00
1.272077736496141753e+01,7.095038358767494557e+00
1.274078308088025224e+01,7.169697436961053327e+00
1.276078879679908518e+01,6.902088634613115836e+00
1.278079451271791989e+01,7.071313202569420753e+00
1.280080022863675282e+01,7.212282848682181502e+00
1.282080594455558753e+01,8.195687594839332846e+00
1.284081166047442224e+01,8.178960317837880467e+00
1.286081737639325517e+01,7.796441049915848076e+00
1.288082309231208988e+01,8.279069428742849013e+00
1.290082880823092282e+01,8.214892870200452890e+00
1.292083452414975753e+01,8.182432987557071158e+00
1.294084024006859224e+01,8.193948456068824271e+00
1.296084595598742517e+01,9.084751328506005308e+00
1.298085167190625810e+01,8.580216428356086666e+00
1.300085738782509281e+01,9.445438435013942424e+00
1.302086310374392752e+01,9.210047286216113349e+00
1.304086881966276046e+01,8.525617470834855993e+00
1.306087453558159517e+01,9.375238198668471412e+00
1.308088025150042810e+01,8.773411219809620576e+00
1.310088596741926281e+01,9.192937654134123449e+00
1.312089168333809752e+01,9.231942642669215715e+00
1.314089739925693046e+01,9.132500564640656293e+00
1.316090311517576517e+01,9.872842721948440925e+00
1.318090883109459810e+01,9.922363167514230753e+00
1.320091454701343281e+01,9.720367218256123820e+00
1.322092026293226752e+01,1.068210407979782595e+01
1.324092597885110045e+01,1.120801096246536943e+01
1.326093169476993339e+01,1.059626069752960120e+01
1.328093741068876810e+01,1.130235315227151283e+01
1.330094312660760281e+01,1.090879867641785772e+01
1.332094884252643574e+01,1.099137244620921905e+01
1.334095455844527045e+01,1.111567554130833635e+01
1.336096027436410338e+01,1.174495733918372586e+01
1.338096599028293809e+01,1.142033837791005979e+01
1.340097170620177280e+01,1.136074367566691201e+01
1.342097742212060574e+01,1.144928735329503766e+01
1.344098313803944045e+01,1.175902622579558532e+01
1.346098885395827338e+01,1.120094694116932388e+01
1.348099456987710809e+01,1.201132610117242194e+01
1.350100028579594280e+01,1.086563743554482286e+01
1.352100600171477573e+01,1.160433659817834595e+01
1.354101171763361044e+01,1.056585422354358705e+01
1.356101743355244338e+01,1.050104601598862075e+01
1.358102314947127809e+01,1.065572541276316088e+01
1.360102886539011102e+01,9.239185887470446445e+00
1.362103458130894573e+01,9.783216676371916165e+00
1.364104029722777867e+01,8.457097718117024598e+00
1.366104601314661338e+01,8.978735305106264164e+00
1.368105172906544809e+01,7.976629332949308093e+00
1.370105744498428102e+01,7.596602961606737203e+00
1.372106316090311573e+01,6.305410429000724903e+00
1.374106887682194866e+01,5.671788516349535847e+00
1.376107459274078337e+01,5.674149751578219991e+00
1.378108030865961808e+01,5.471188736314923418e+00
1.380108602457845102e+01,4.977245780478103399e+00
1.382109174049728573e+01,4.073427089253997657e+00
1.384109745641611866e+01,3.881661478287801614e+00
1.386110317233495337e+01,4.705577466805127784e+00
1.388110888825378808e+01,3.981565687467934822e+00
1.390111460417262101e+01,3.671993765382458363e+00
1.392112032009145395e+01,3.891626624814480628e+00
1.394112603601028866e+01,3.385725504252276696e+00
1.396113175192912337e+01,3.492434367109747306e+00
1.398113746784795630e+01,2.760713042403073025e+00
1.400114318376679101e+01,3.679871792902180694e+00
1.402114889968562395e+01,3.498622749128657894e+00
1.404115461560445866e+01,3.610262720526480784e+00
1.406116033152329337e+01,3.226034634508058385e+00
1.408116604744212630e+01,3.549436339405755980e+00
1.410117176336095923e+01,2.989686124704712178e+00
1.412117747927979394e+01,3.454338907728133456e+00
1.414118319519862865e+01,3.204465385186504811e+00
1.416118891111746336e+01,2.673984060286991316e+00
1.418119462703629630e+01,4.021187189063641476e+00
1.420120034295512923e+01,3.692179234026342627e+00
1.422120605887396394e+01,3.868568940288415803e+00
1.424121177479279865e+01,3.498802863256873952e+00
1.426121749071163336e+01,3.184628373453130212e+00
1.428122320663046629e+01,3.928603687669317779e+00
1.430122892254929923e+01,3.896523795665493672e+00
1.432123463846813394e+01,2.736651899764515505e+00
1.434124035438696865e+01,3.565726313362862498e+00
1.436124607030580158e+01,2.877855612077089731e+00
1.438125178622463629e+01,3.869702653180198126e+00
1.440125750214346922e+01,3.054714878611089368e+00
1.442126321806230393e+01,4.214081168292324264e+00
1.444126893398113864e+01,3.641211993909620581e+00
1.446127464989997158e+01,3.243835679449341480e+00
1.448128036581880451e+01,4.105394850928547612e+00
1.450128608173763922e+01,3.206163028062808174e+00
1.452129179765647393e+01,3.525172173077722348e+00
1.454129751357530864e+01,3.443660298619188875e+00
1.456130322949414158e+01,3.532081377229124186e+00
1.458130894541297451e+01,3.204405290913688198e+00
1.460131466133180922e+01,3.873967628106226080e+00
1.462132037725064393e+01,3.882431473392493615e+00
1.464132609316947686e+01,3.810907796077900755e+00
1.466133180908831157e+01,3.450195913979930751e+00
1.468133752500714451e+01,3.906646616562450269e+00
1.470134324092597922e+01,2.833796980978006808e+00
1.472134895684481393e+01,3.885011964160894227e+00
1.474135467276364686e+01,3.865005973822210450e+00
1.476136038868247979e+01,3.407473023339446794e+00
1.478136610460131450e+01,3.917416578127794757e+00
1.480137182052014921e+01,3.021485363329077245e+00
1.482137753643898392e+01,3.200748216233822774e+00
1.484138325235781686e+01,3.543897527232703126e+00
1.486138896827664979e+01,4.320930016048531108e+00
1.488139468419548450e+01,3.142385652332722934e+00
1.490140040011431921e+01,2.948048489604806477e+00
1.492140611603315392e+01,3.313944723832126904e+00
1.494141183195198685e+01,3.734912237429024451e+00
1.496141754787081979e+01,3.308960146812346625e+00
1.498142326378965450e+01,3.447187778491006327e+00
1.500142897970848921e+01,3.588445576032325945e+00
1.502143469562732214e+01,3.944776987105591104e+00
1.504144041154615508e+01,3.820324956491489843e+00
1.506144612746498979e+01,3.786393108378308003e+00
1.508145184338382450e+01,3.896930720250230351e+00
1.510145755930265921e+01,3.582276718774070279e+00
1.512146327522149214e+01,3.582947860953398234e+00
1.514146899114032507e+01,3.678467877217752591e+00
1.516147470705915978e+01,3.304034771623541644e+00
1.518148042297799449e+01,3.284728430651535636e+00
1.520148613889682920e+01,3.553961682143937484e+00
1.522149185481566214e+01,3.363216407566405053e+00
1.524149757073449507e+01,3.009066870149216033e+00
1.526150328665332978e+01,4.239569025335608643e+00
1.528150900257216449e+01,3.033729989254003279e+00
1.530151471849099742e+01,4.308982370497252745e+00
1.532152043440983036e+01,3.502016676421229491e+00
1.534152615032866507e+01,3.967776558924670738e+00
1.536153186624749978e+01,3.946972846544174907e+00
1.538153758216633449e+01,3.404991327908939880e+00
1.540154329808516742e+01,3.119342096072604598e+00
1.542154901400400036e+01,3.540259411460222161e+00
1.544155472992283507e+01,3.596249177802998354e+00
1.546156044584166978e+01,4.046789006644683440e+00
1.548156616176050449e+01,3.898112161841468915e+00
1.550157187767933742e+01,4.193024123749280463e+00
1.552157759359817035e+01,3.474535165147430771e+00
1.554158330951700506e+01,4.434433008871631721e+00
1.556158902543583977e+01,4.639513159552709709e+00
1.558159474135467271e+01,4.102037118600835974e+00
1.560160045727350742e+01,3.993968132389027925e+00
1.562160617319234035e+01,4.016442684954547815e+00
1.564161188911117506e+01,3.938252974886248925e+00
1.566161760503000977e+01,3.860903759931864521e+00
1.568162332094884270e+01,5.016300089059097189e+00
1.570162903686767564e+01,4.368079790513769822e+00
1.572163475278651035e+01,3.849567717361599861e+00
1.574164046870534506e+01,4.307006591179264099e+00
1.576164618462417977e+01,4.398597438527413139e+00
1.578165190054301270e+01,4.645567479738419436e+00
1.580165761646184563e+01,3.721429355888921542e+00
1.582166333238068034e+01,3.963215569714964026e+00
1.584166904829951505e+01,4.707073257207436079e+00
1.586167476421834799e+01,4.470738429943973635e+00
1.588168048013718270e+01,3.846971960575880090e+00
1.590168619605601563e+01,4.538575642887291650e+00
1.592169191197485034e+01,4.535313177370852600e+00
1.594169762789368505e+01,4.194271222468215043e+00
1.596170334381251799e+01,5.120527351113166148e+00
1.598170905973135092e+01,4.894856124773172112e+00
1.600171477565018563e+01,5.067322408122169719e+00
1.602172049156902034e+01,5.324743183660004320e+00
1.604172620748785505e+01,5.049252336331218061e+00
1.606173192340668976e+01,5.241683556668065513e+00
1.608173763932552092e+01,5.099180876426956388e+00
1.610174335524435563e+01,5.451824874953372202e+00
1.612174907116319034e+01,5.323728757237172537e+00
1.614175478708202505e+01,4.800369088313774846e+00
1.616176050300085620e+01,6.202138453818958119e+00
1.618176621891969091e+01,5.160265596321072401e+00
1.620177193483852562e+01,5.633551023179524719e+00
1.622177765075736033e+01,5.215651876670023057e+00
1.624178336667619504e+01,4.927529954719830130e+00
1.626178908259502620e+01,5.178960599852029389e+00
1.628179479851386091e+01,6.068704038449661553e+00
1.630180051443269562e+01,5.495410676847921394e+00
1.632180623035153033e+01,6.520498728615859108e+00
1.634181194627036149e+01,6.342322077072944708e+00
1.636181766218919620e+01,5.762383109488110833e+00
1.638182337810803091e+01,6.169970590332890303e+00
1.640182909402686562e+01,6.252669451078801899e+00
1.642183480994570033e+01,6.306369292153698680e+00
1.644184052586453504e+01,7.131161120504318163e+00
1.646184624178336620e+01,7.019312149408107437e+00
1.648185195770220091e+01,6.051766575109093438e+00
1.650185767362103562e+01,6.518287845562041660e+00
1.652186338953986677e+01,6.187381204014638314e+00
1.654186910545870148e+01,6.537200311620750881e+00
1.656187482137753619e+01,7.313103114609313948e+00
1.658188053729637090e+01,6.469470877540394405e+00
1.660188625321520561e+01,6.756747653532452880e+00
1.662189196913404032e+01,7.031097015911042192e+00
1.664189768505287148e+01,5.638537838362235100e+00
1.666190340097170619e+01,6.103108035197401193e+00
1.668190911689054090e+01,5.786114261288378913e+00
1.670191483280937561e+01,6.289135694117559794e+00
1.672192054872820677e+01,5.860541626523527725e+00
1.674192626464704148e+01,6.320015791340900080e+00
1.676193198056587619e+01,6.119962558367975092e+00
1.678193769648471090e+01,5.613599143926522039e+00
1.680194341240354561e+01,5.795196071971158602e+00
1.682194912832238032e+01,5.845338747199912532e+00
1.684195484424121148e+01,6.081054507903936646e+00
1.686196056016004619e+01,5.894787057911267780e+00
1.688196627607888090e+01,6.310026176761386552e+00
1.690197199199771205e+01,5.462429943908760244e+00
1.692197770791654676e+01,6.487580249543031030e+00
1.694198342383538147e+01,6.342748408438561469e+00
1.696198913975421618e+01,6.174155079490063258e+00
1.698199485567305089e+01,6.612704528396527337e+00
1.700200057159188560e+01,6.210885840719535977e+00
1.702200628751071676e+01,6.374183642610453226e+00
1.704201200342955147e+01,6.623061987926042171e+00
1.706201771934838618e+01,6.461095560942011318e+00
1.708202343526722089e+01,6.424151157422622660e+00
1.710202915118605205e+01,6.506471216425690152e+00
1.712203486710488676e+01,6.377555088718416698e+00
1.714204058302372147e+01,7.003642137506933096e+00
1.716204629894255618e+01,7.066702465706613978e+00
1.718205201486139089e+01,7.376529062612507737e+00
1.720205773078022204e+01,6.722253260811603681e+00
1.722206344669905675e+01,6.503590661660979322e+00
1.724206916261789146e+01,6.993825229639291763e+00
1.726207487853672617e+01,6.823524861540279041e+00
1.728208059445555733e+01,6.633567847939977113e+00
1.730208631037439204e+01,7.028593662197050840e+00
1.732209202629322675e+01,6.800110491989203254e+00
1.734209774221206146e+01,6.381882951735469156e+00
1.736210345813089617e+01,6.391232558102037942e+00
1.738210917404973088e+01,5.833631551413166250e+00
1.740211488996856204e+01,5.929641345319749846e+00
1.742212060588739675e+01,6.117075361288178748e+00
1.744212632180623146e+01,6.390921526797813890e+00
1.746213203772506262e+01,5.837142026260960570e+00
1.748213775364389733e+01,5.989933234220456981e+00
1.750214346956273204e+01,5.121908616502681255e+00
1.752214918548156675e+01,6.000948228757209790e+00
1.754215490140040146e+01,5.433567481557176393e+00
1.756216061731923617e+01,5.355605360156801886e+00
1.758216633323806732e+01,5.048678662169992393e+00
1.760217204915690203e+01,4.350135314837129563e+00
1.762217776507573674e+01,5.608815333324526087e+00
1.764218348099457145e+01,4.807990206021478308e+00
1.766218919691340261e+01,5.371044933195070037e+00
1.768219491283223732e+01,4.975112152336615523e+00
1.770220062875107203e+01,3.840158250553713515e+00
1.772220634466990674e+01,5.030171863162339996e+00
1.774221206058874145e+01,5.110549738224079874e+00
1.776221777650757616e+01,4.335036633646069504e+00
1.778222349242640732e+01,4.049624617602605170e+00
1.780222920834524203e+01,3.913310749209466088e+00
1.782223492426407674e+01,4.872624491282526726e+00
1.784224064018290790e+01,4.138914551287888877e+00
1.786224635610174261e+01,5.023867798976223042e+00
1.788225207202057732e+01,4.371120790709479564e+00
1.790225778793941203e+01,4.994637497553504168e+00
1.792226350385824674e+01,5.133302925093163438e+00
1.794226921977708145e+01,4.918354610453421039e+00
1.796227493569591260e+01,4.951140089773627295e+00
