angle,intensity
1.000000000000000000e+01,1.000000000000000000e+02
1.002000571591883471e+01,9.193785315512261036e+01
1.004001143183766764e+01,8.508054305557148211e+01
1.006001714775650235e+01,7.806546139316085942e+01
1.008002286367533529e+01,7.039483712109117164e+01
1.010002857959417000e+01,6.138410342968270328e+01
1.012003429551300293e+01,5.439103255873245502e+01
1.014004001143183764e+01,4.705803539752547238e+01
1.016004572735067235e+01,4.156991838581208754e+01
1.018005144326950528e+01,3.543115205031038784e+01
1.020005715918833999e+01,2.927553182745951332e+01
1.022006287510717293e+01,2.615416268714944792e+01
1.024006859102600764e+01,2.193724065022801284e+01
1.026007430694484057e+01,1.988364345337543071e+01
1.028008002286367528e+01,1.779899410235419666e+01
1.030008573878250999e+01,1.467004411712322032e+01
1.032009145470134293e+01,1.342564380976416771e+01
1.034009717062017764e+01,1.304345108050148916e+01
1.036010288653901057e+01,1.133462194013481827e+01
1.038010860245784528e+01,1.016261683734606081e+01
1.040011431837667999e+01,1.099869457895465708e+01
1.042012003429551292e+01,8.956910357327348748e+00
1.044012575021434763e+01,9.261280072706345123e+00
1.046013146613318057e+01,8.454722363855314171e+00
1.048013718205201528e+01,9.571186637515415541e+00
1.050014289797084821e+01,9.285227799141955174e+00
1.052014861388968292e+01,8.717716799274922934e+00
1.054015432980851585e+01,8.261614343919600145e+00
1.056016004572735056e+01,8.736685123194176228e+00
1.058016576164618527e+01,7.966468039030691450e+00
1.060017147756501821e+01,7.449054839361009428e+00
1.062017719348385292e+01,8.035090495283863987e+00
1.064018290940268585e+01,7.370036371601713654e+00
1.066018862532152056e+01,7.089197902927587336e+00
1.068019434124035527e+01,8.211551014287882921e+00
1.070020005715918820e+01,6.606761254604256450e+00
1.072020577307802292e+01,7.141983071040194808e+00
1.074021148899685585e+01,7.880913083973540623e+00
1.076021720491569056e+01,6.996631284294935860e+00
1.078022292083452349e+01,7.321952775763673316e+00
1.080022863675335820e+01,7.097381750883495322e+00
1.082023435267219291e+01,6.661691938175328787e+00
1.084024006859102585e+01,5.929656557054059363e+00
1.086024578450986056e+01,7.305772080154896209e+00
1.088025150042869349e+01,5.901841201181916574e+00
1.090025721634752820e+01,6.486661389869429861e+00
1.092026293226636113e+01,6.069877240060845836e+00
1.094026864818519584e+01,6.968939299876610427e+00
1.096027436410403055e+01,6.152007341012279973e+00
1.098028008002286349e+01,6.963022403799626225e+00
1.100028579594169820e+01,7.259325177272718754e+00
1.102029151186053113e+01,5.977426040635926974e+00
1.104029722777936584e+01,6.530185937043536448e+00
1.106030294369819877e+01,7.087943479771221966e+00
1.108030865961703348e+01,6.095716729119360799e+00
1.110031437553586819e+01,5.811516921896691557e+00
1.112032009145470113e+01,6.743702707975143262e+00
1.114032580737353584e+01,5.759260790994398249e+00
1.116033152329236877e+01,5.525284343082088157e+00
1.118033723921120348e+01,6.006690555392045106e+00
1.120034295513003642e+01,6.220348701546170034e+00
1.122034867104887113e+01,6.172187320332448657e+00
1.124035438696770584e+01,5.178689788597787391e+00
1.126036010288653877e+01,5.480978671779354272e+00
1.128036581880537348e+01,6.182228105216795555e+00
1.130037153472420641e+01,6.493663718605211521e+00
1.132037725064304112e+01,5.834682748900232419e+00
1.134038296656187583e+01,4.970056194154827800e+00
1.136038868248070877e+01,5.937818100426158097e+00
1.138039439839954348e+01,5.508576282050491990e+00
1.140040011431837641e+01,6.079428829800553657e+00
1.142040583023721112e+01,6.133335645310472373e+00
1.144041154615604405e+01,5.094571544542048969e+00
1.146041726207487876e+01,6.072406472370724728e+00
1.148042297799371170e+01,6.623881277836947135e+00
1.150042869391254641e+01,5.955509374774683451e+00
1.152043440983138112e+01,6.563821034810357169e+00
1.154044012575021405e+01,5.049176831933035459e+00
1.156044584166904876e+01,5.934361898799776824e+00
1.158045155758788169e+01,6.508699617875620902e+00
1.160045727350671640e+01,6.164311870992630560e+00
1.162046298942555111e+01,6.101921065879646555e+00
1.164046870534438405e+01,4.858782645799727185e+00
1.166047442126321876e+01,4.753111323575677893e+00
1.168048013718205169e+01,5.966098571898651670e+00
1.170048585310088640e+01,5.684598931132672561e+00
1.172049156901971934e+01,6.257554463015498669e+00
1.174049728493855405e+01,5.757344465806345291e+00
1.176050300085738698e+01,4.868584542076364485e+00
1.178050871677622169e+01,6.292810306195920411e+00
1.180051443269505640e+01,6.292561752744130210e+00
1.182052014861388933e+01,5.733038696941618717e+00
1.184052586453272404e+01,4.636365579966657435e+00
1.186053158045155698e+01,4.519969226177568800e+00
1.188053729637039169e+01,4.558856809302722191e+00
1.190054301228922640e+01,6.161071212384134022e+00
1.192054872820805933e+01,5.598908045585899274e+00
1.194055444412689404e+01,5.143269301800158289e+00
1.196056016004572697e+01,4.991161089757687463e+00
1.198056587596456168e+01,4.414521101643588352e+00
1.200057159188339639e+01,6.067842764192157290e+00
1.202057730780222933e+01,4.817190876823796764e+00
1.204058302372106226e+01,4.565414582076073202e+00
1.206058873963989697e+01,6.166838834188735241e+00
1.208059445555873168e+01,4.918952803384577521e+00
1.210060017147756461e+01,4.626294730601435035e+00
1.212060588739639932e+01,5.118664466011951575e+00
1.214061160331523226e+01,5.805203650031660167e+00
1.216061731923406697e+01,6.022645979287387874e+00
1.218062303515290168e+01,4.896811076136345697e+00
1.220062875107173461e+01,5.036476657597898310e+00
1.222063446699056932e+01,6.061373992857957305e+00
1.224064018290940226e+01,4.887417312064993524e+00
1.226064589882823697e+01,5.422582821568688871e+00
1.228065161474707168e+01,5.216561662940931932e+00
1.230065733066590461e+01,4.840082203484251444e+00
1.232066304658473754e+01,4.635354745786928632e+00
1.234066876250357225e+01,5.290393634960048885e+00
1.236067447842240696e+01,4.828378900326541157e+00
1.238068019434123990e+01,4.815698752563219998e+00
1.240068591026007461e+01,4.208426003342936816e+00
1.242069162617890754e+01,5.507906583275070211e+00
1.244069734209774225e+01,5.863847253866670606e+00
1.246070305801657696e+01,4.630324189077229313e+00
1.248070877393540989e+01,5.296128672504092805e+00
1.250071448985424460e+01,4.177574458681132974e+00
1.252072020577307754e+01,5.015030225905200645e+00
1.254072592169191225e+01,5.828690773656519220e+00
1.256073163761074696e+01,5.087305751739156889e+00
1.258073735352957989e+01,4.828746949194755445e+00
1.260074306944841460e+01,5.184125909957567835e+00
1.262074878536724754e+01,4.483298707311902831e+00
1.264075450128608225e+01,5.230037328916786521e+00
1.266076021720491518e+01,5.142495592538505633e+00
1.268076593312374989e+01,4.941630031696370828e+00
1.270077164904258282e+01,5.701109284537515087e+00
1.272077736496141753e+01,4.694928942128702154e+00
1.274078308088025224e+01,4.519958128280265441e+00
1.276078879679908518e+01,4.774568644296668829e+00
1.278079451271791989e+01,5.662329935922620017e+00
1.280080022863675282e+01,5.812294851344261382e+00
1.282080594455558753e+01,4.794287433652141495e+00
1.284081166047442224e+01,4.428948948884592340e+00
1.286081737639325517e+01,4.568553138523190782e+00
1.288082309231208988e+01,4.032202642393735381e+00
1.290082880823092282e+01,4.897436160340911115e+00
1.292083452414975753e+01,4.711987637822926622e+00
1.294084024006859224e+01,5.542111830438867237e+00
1.296084595598742517e+01,4.500346708886691971e+00
1.298085167190625810e+01,4.159095460119035970e+00
1.300085738782509281e+01,4.861390370243469761e+00
1.302086310374392752e+01,4.352056750533861873e+00
1.304086881966276046e+01,4.684210318533706285e+00
1.306087453558159517e+01,4.965035076878766773e+00
1.308088025150042810e+01,4.463256016416540461e+00
1.310088596741926281e+01,5.379376999215876864e+00
1.312089168333809752e+01,4.648807824480819306e+00
1.314089739925693046e+01,5.520342094464460558e+00
1.316090311517576517e+01,4.552801818883769336e+00
1.318090883109459810e+01,4.933300949841183503e+00
1.320091454701343281e+01,3.954906117588182113e+00
1.322092026293226752e+01,4.382358325487320627e+00
1.324092597885110045e+01,4.613642273330573751e+00
1.326093169476993339e+01,5.110043595560211038e+00
1.328093741068876810e+01,4.443488561796644198e+00
1.330094312660760281e+01,5.169879972360430287e+00
1.332094884252643574e+01,4.968845152070962001e+00
1.334095455844527045e+01,5.637796467880490603e+00
1.336096027436410338e+01,4.948027274938143094e+00
1.338096599028293809e+01,4.496662328186345370e+00
1.340097170620177280e+01,4.060903821940168079e+00
1.342097742212060574e+01,5.408213224639520256e+00
1.344098313803944045e+01,4.073223864096893188e+00
1.346098885395827338e+01,5.410958730550979645e+00
1.348099456987710809e+01,4.305708302716191760e+00
1.350100028579594280e+01,5.537609710076447200e+00
1.352100600171477573e+01,5.359279591257305242e+00
1.354101171763361044e+01,5.431948366075131318e+00
1.356101743355244338e+01,4.771378204904110909e+00
1.358102314947127809e+01,4.465066409872730624e+00
1.360102886539011102e+01,4.292471397958649071e+00
1.362103458130894573e+01,3.766011393114337302e+00
1.364104029722777867e+01,4.419249965187861839e+00
1.366104601314661338e+01,5.128729730587191504e+00
1.368105172906544809e+01,4.546424795666100138e+00
1.370105744498428102e+01,3.898869681705508405e+00
1.372106316090311573e+01,4.164593091060016405e+00
1.374106887682194866e+01,3.859969546230231696e+00
1.376107459274078337e+01,5.363802047465498823e+00
1.378108030865961808e+01,5.114879968233481122e+00
1.380108602457845102e+01,5.447155583062851747e+00
1.382109174049728573e+01,4.644607145802543080e+00
1.384109745641611866e+01,5.033315035454466901e+00
1.386110317233495337e+01,4.646765117782685195e+00
1.388110888825378808e+01,4.508969474227888519e+00
1.390111460417262101e+01,4.347553060110882939e+00
1.392112032009145395e+01,3.818479434674032724e+00
1.394112603601028866e+01,5.301695880182021092e+00
1.396113175192912337e+01,4.739192607381702338e+00
1.398113746784795630e+01,3.764299488564210705e+00
1.400114318376679101e+01,4.544101797255909680e+00
1.402114889968562395e+01,5.316461065365891692e+00
1.404115461560445866e+01,5.371453902754504739e+00
1.406116033152329337e+01,5.110714189143554798e+00
1.408116604744212630e+01,5.078542832266666807e+00
1.410117176336095923e+01,4.910384534695757530e+00
1.412117747927979394e+01,3.958168729333245039e+00
1.414118319519862865e+01,4.693103030836906164e+00
1.416118891111746336e+01,3.772797054762212277e+00
1.418119462703629630e+01,4.302590312313400389e+00
1.420120034295512923e+01,4.454384956088413894e+00
1.422120605887396394e+01,4.377153662529147837e+00
1.424121177479279865e+01,4.090671026751451222e+00
1.426121749071163336e+01,3.571458039610772683e+00
1.428122320663046629e+01,4.775666314675847346e+00
1.430122892254929923e+01,5.035634970771712737e+00
1.432123463846813394e+01,4.921294665437224936e+00
1.434124035438696865e+01,4.147302775533455055e+00
1.436124607030580158e+01,4.668355869019627846e+00
1.438125178622463629e+01,4.507036125395664783e+00
1.440125750214346922e+01,3.670161434051256943e+00
1.442126321806230393e+01,4.458088858098459895e+00
1.444126893398113864e+01,5.041567613741976928e+00
1.446127464989997158e+01,5.246355115054898377e+00
1.448128036581880451e+01,3.483794806792559484e+00
1.450128608173763922e+01,5.259571154744365984e+00
1.452129179765647393e+01,4.059992542612822497e+00
1.454129751357530864e+01,4.933591974635661792e+00
1.456130322949414158e+01,4.906318198906801875e+00
1.458130894541297451e+01,3.491859711666024157e+00
1.460131466133180922e+01,4.220019932185040901e+00
1.462132037725064393e+01,4.739144594622383799e+00
1.464132609316947686e+01,4.656584391541734647e+00
1.466133180908831157e+01,4.508669891469531343e+00
1.468133752500714451e+01,4.645614503825146180e+00
1.470134324092597922e+01,3.743914379677715676e+00
1.472134895684481393e+01,3.522266148996923363e+00
1.474135467276364686e+01,3.785032170359572401e+00
1.476136038868247979e+01,3.733706691783269527e+00
1.478136610460131450e+01,3.454525069745638000e+00
1.480137182052014921e+01,5.034596965947899072e+00
1.482137753643898392e+01,5.257709404360903171e+00
1.484138325235781686e+01,4.940916132946954420e+00
1.486138896827664979e+01,4.286156434410621330e+00
1.488139468419548450e+01,3.945576121813712422e+00
1.490140040011431921e+01,5.230109517836051047e+00
1.492140611603315392e+01,3.674784548627618275e+00
1.494141183195198685e+01,4.549714377493817352e+00
1.496141754787081979e+01,5.199525441666682291e+00
1.498142326378965450e+01,5.132763197082887530e+00
1.500142897970848921e+01,4.756636239776232067e+00
1.502143469562732214e+01,5.159991439037235672e+00
1.504144041154615508e+01,4.643178073957629159e+00
1.506144612746498979e+01,5.141808757201116187e+00
1.508145184338382450e+01,4.887965601242858504e+00
1.510145755930265921e+01,3.742266060121153703e+00
1.512146327522149214e+01,3.814181337604488853e+00
1.514146899114032507e+01,4.011595607901004890e+00
1.516147470705915978e+01,3.999984706890149067e+00
1.518148042297799449e+01,4.884851894628478242e+00
1.520148613889682920e+01,4.633094949774219984e+00
1.522149185481566214e+01,3.536857322852920760e+00
1.524149757073449507e+01,4.332405189263393019e+00
1.526150328665332978e+01,4.071889171008621133e+00
1.528150900257216449e+01,4.336442862325294634e+00
1.530151471849099742e+01,3.611755006549342450e+00
1.532152043440983036e+01,3.738598131121992463e+00
1.534152615032866507e+01,3.874911290736076097e+00
1.536153186624749978e+01,3.838609181887753241e+00
1.538153758216633449e+01,4.549123600869244832e+00
1.540154329808516742e+01,4.382500097039495834e+00
1.542154901400400036e+01,3.788134440433053474e+00
1.544155472992283507e+01,4.461605728443320373e+00
1.546156044584166978e+01,3.583816444506465970e+00
1.548156616176050449e+01,3.578137843664929818e+00
1.550157187767933742e+01,3.737726076264832553e+00
1.552157759359817035e+01,4.376028842042982703e+00
1.554158330951700506e+01,4.865915923497171391e+00
1.556158902543583977e+01,3.731680170309907840e+00
1.558159474135467271e+01,4.221997737505474468e+00
1.560160045727350742e+01,4.991507025759585048e+00
1.562160617319234035e+01,4.919655094662620520e+00
1.564161188911117506e+01,5.224206951949955879e+00
1.566161760503000977e+01,3.607938590486106101e+00
1.568162332094884270e+01,5.330166340943454095e+00
1.570162903686767564e+01,4.493678715624822573e+00
1.572163475278651035e+01,4.234337232719751043e+00
1.574164046870534506e+01,4.619668379836971539e+00
1.576164618462417977e+01,4.518695381936996824e+00
1.578165190054301270e+01,4.376116708729551164e+00
1.580165761646184563e+01,4.728173771997901120e+00
1.582166333238068034e+01,3.910926120787370674e+00
1.584166904829951505e+01,3.777653744163639971e+00
1.586167476421834799e+01,4.049057314353333936e+00
1.588168048013718270e+01,4.764609618590037954e+00
1.590168619605601563e+01,3.910198234634849612e+00
1.592169191197485034e+01,3.819613911542120377e+00
1.594169762789368505e+01,5.437447345760933359e+00
1.596170334381251799e+01,5.417614407095996398e+00
1.598170905973135092e+01,5.048607388001282281e+00
1.600171477565018563e+01,3.689019063603110826e+00
1.602172049156902034e+01,5.114922734501361923e+00
1.604172620748785505e+01,5.394402937709149803e+00
1.606173192340668976e+01,4.509618809293542974e+00
1.608173763932552092e+01,5.570834732643349163e+00
1.610174335524435563e+01,4.528330445014741912e+00
1.612174907116319034e+01,4.411958580705805488e+00
1.614175478708202505e+01,4.945194787251747215e+00
1.616176050300085620e+01,4.183834888661079887e+00
1.618176621891969091e+01,4.677435375463675271e+00
1.620177193483852562e+01,4.286065746580540292e+00
1.622177765075736033e+01,4.861222584665934043e+00
1.624178336667619504e+01,4.608724414040854533e+00
1.626178908259502620e+01,4.010806779179327819e+00
1.628179479851386091e+01,5.115821054165682114e+00
1.630180051443269562e+01,4.264085859264015177e+00
1.632180623035153033e+01,5.364666656031578995e+00
1.634181194627036149e+01,3.800600977992282026e+00
1.636181766218919620e+01,3.911192650441668750e+00
1.638182337810803091e+01,5.402818857303517852e+00
1.640182909402686562e+01,3.806835425601144518e+00
1.642183480994570033e+01,4.209947026150142158e+00
1.644184052586453504e+01,5.023413919396623406e+00
1.646184624178336620e+01,3.884778629914346748e+00
1.648185195770220091e+01,5.177976744852042401e+00
1.650185767362103562e+01,5.250379954143850725e+00
1.652186338953986677e+01,3.989426791276344364e+00
1.654186910545870148e+01,4.027634816564009235e+00
1.656187482137753619e+01,5.614657898626626675e+00
1.658188053729637090e+01,4.647661751739165403e+00
1.660188625321520561e+01,5.388885904641970370e+00
1.662189196913404032e+01,4.128922409789086423e+00
1.664189768505287148e+01,4.173529828051112389e+00
1.666190340097170619e+01,5.455850697959141016e+00
1.668190911689054090e+01,5.333876470760646527e+00
1.670191483280937561e+01,5.695252516988029257e+00
1.672192054872820677e+01,5.758403418574501664e+00
1.674192626464704148e+01,6.054163973011040589e+00
1.676193198056587619e+01,6.217433613053608532e+00
1.678193769648471090e+01,6.435477525490175488e+00
1.680194341240354561e+01,5.624534291765547422e+00
1.682194912832238032e+01,5.451787124221568526e+00
1.684195484424121148e+01,5.210812758637829667e+00
1.686196056016004619e+01,5.957883738472805391e+00
1.688196627607888090e+01,5.058068870672816963e+00
1.690197199199771205e+01,5.466217888467476804e+00
1.692197770791654676e+01,6.954901375648384843e+00
1.694198342383538147e+01,6.030441886930745454e+00
1.696198913975421618e+01,6.962527977218789133e+00
1.698199485567305089e+01,6.509651125368595359e+00
1.700200057159188560e+01,7.055031952810211671e+00
1.702200628751071676e+01,7.428464279099346257e+00
1.704201200342955147e+01,7.562017561524466025e+00
1.706201771934838618e+01,7.159498119958670692e+00
1.708202343526722089e+01,7.583434167756131217e+00
1.710202915118605205e+01,6.557710565017975668e+00
1.712203486710488676e+01,7.074855254614707434e+00
1.714204058302372147e+01,6.847864388875774644e+00
1.716204629894255618e+01,6.504377131920723976e+00
1.718205201486139089e+01,7.026936969741916172e+00
1.720205773078022204e+01,7.376934583556910674e+00
1.722206344669905675e+01,7.802197478116013052e+00
1.724206916261789146e+01,8.892441939850337818e+00
1.726207487853672617e+01,7.605794928101754060e+00
1.728208059445555733e+01,9.026248832222586671e+00
1.730208631037439204e+01,9.135361705264820387e+00
1.732209202629322675e+01,8.455134666212714478e+00
1.734209774221206146e+01,8.602572061507691714e+00
1.736210345813089617e+01,7.999471557309043135e+00
1.738210917404973088e+01,8.733883977839463242e+00
1.740211488996856204e+01,8.658263948101023288e+00
1.742212060588739675e+01,9.138126738323286702e+00
1.744212632180623146e+01,8.466289412109588852e+00
1.746213203772506262e+01,9.137531585252395061e+00
1.748213775364389733e+01,8.760407130086452554e+00
1.750214346956273204e+01,9.551889191818375480e+00
1.752214918548156675e+01,8.888260547030743197e+00
1.754215490140040146e+01,9.329374558762012271e+00
1.756216061731923617e+01,8.739591679910189370e+00
1.758216633323806732e+01,8.940225898943280569e+00
1.760217204915690203e+01,8.291817402329840547e+00
1.762217776507573674e+01,7.650329146415712600e+00
1.764218348099457145e+01,7.435525391654446814e+00
1.766218919691340261e+01,8.122359541650878256e+00
1.768219491283223732e+01,7.461133075761390288e+00
1.770220062875107203e+01,8.574231055325689965e+00
1.772220634466990674e+01,8.248864002472611645e+00
1.774221206058874145e+01,8.644371145941200041e+00
1.776221777650757616e+01,7.817123698901374595e+00
1.778222349242640732e+01,7.905459953603178214e+00
1.780222920834524203e+01,8.588375477040310457e+00
1.782223492426407674e+01,7.762118450945271420e+00
1.784224064018290790e+01,8.130361764500069199e+00
1.786224635610174261e+01,9.150055724401905621e+00
1.788225207202057732e+01,9.921121411934471723e+00
1.790225778793941203e+01,8.970011016657915448e+00
1.792226350385824674e+01,9.479067659721248873e+00
1.794226921977708145e+01,9.770292812652696668e+00
1.796227493569591260e+01,1.005513759616382430e+01
