angle,intensity
1.000000000000000000e+01,9.990343771904645109e+01
1.002000571591883471e+01,9.987996914556580919e+01
1.004001143183766764e+01,9.932073084314447442e+01
1.006001714775650235e+01,9.842440531863358899e+01
1.008002286367533529e+01,9.762459540603322239e+01
1.010002857959417000e+01,9.716279321524163493e+01
1.012003429551300293e+01,9.519433996375759932e+01
1.014004001143183764e+01,9.246219532130250229e+01
1.016004572735067235e+01,9.044997269648393967e+01
1.018005144326950528e+01,8.753678259380643567e+01
1.020005715918833999e+01,8.335577755785421061e+01
1.022006287510717293e+01,7.918237854811494003e+01
1.024006859102600764e+01,7.381951012303586879e+01
1.026007430694484057e+01,7.016838969442912344e+01
1.028008002286367528e+01,6.395913090514916632e+01
1.030008573878250999e+01,5.806111982690983098e+01
1.032009145470134293e+01,5.264205240187776980e+01
1.034009717062017764e+01,4.731319373802951134e+01
1.036010288653901057e+01,4.177716487129550416e+01
1.038010860245784528e+01,3.691566351600089035e+01
1.040011431837667999e+01,3.215874098793533165e+01
1.042012003429551292e+01,2.712074549621378594e+01
1.044012575021434763e+01,2.255620305206619491e+01
1.046013146613318057e+01,1.915660168139286412e+01
1.048013718205201528e+01,1.762686797567111086e+01
1.050014289797084821e+01,1.455041857433784536e+01
1.052014861388968292e+01,1.212804044379699420e+01
1.054015432980851585e+01,1.142939104747641466e+01
1.056016004572735056e+01,8.784824541514179685e+00
1.058016576164618527e+01,8.323961223217764882e+00
1.060017147756501821e+01,6.842535761223306423e+00
1.062017719348385292e+01,7.676066322105092432e+00
1.064018290940268585e+01,6.322696945477854769e+00
1.066018862532152056e+01,5.421263435460522473e+00
1.068019434124035527e+01,4.867896301398690007e+00
1.070020005715918820e+01,5.245027216765405953e+00
1.072020577307802292e+01,5.762132602901655964e+00
1.074021148899685585e+01,4.724158120256682025e+00
1.076021720491569056e+01,4.069165798591580341e+00
1.078022292083452349e+01,4.462548651379495190e+00
1.080022863675335820e+01,4.799012909156813222e+00
1.082023435267219291e+01,4.000723916196408325e+00
1.084024006859102585e+01,3.334421327775139776e+00
1.086024578450986056e+01,3.622514945484775151e+00
1.088025150042869349e+01,3.402026337123550181e+00
1.090025721634752820e+01,3.464085009702138951e+00
1.092026293226636113e+01,3.404314128183491661e+00
1.094026864818519584e+01,4.087442246404551227e+00
1.096027436410403055e+01,2.323090532247036322e+00
1.098028008002286349e+01,3.273163824449907722e+00
1.100028579594169820e+01,3.474965366512846376e+00
1.102029151186053113e+01,2.670493764503838463e+00
1.104029722777936584e+01,2.350358102514199299e+00
1.106030294369819877e+01,2.753550761509874434e+00
1.108030865961703348e+01,3.069442350588245105e+00
1.110031437553586819e+01,2.928290954978590932e+00
1.112032009145470113e+01,3.035568613786487013e+00
1.114032580737353584e+01,2.492915997437466835e+00
1.116033152329236877e+01,3.580206168353898821e+00
1.118033723921120348e+01,2.848557339747606498e+00
1.120034295513003642e+01,2.382391151215717429e+00
1.122034867104887113e+01,2.553785910550241400e+00
1.124035438696770584e+01,2.350973326917654482e+00
1.126036010288653877e+01,2.575157469679902444e+00
1.128036581880537348e+01,2.514757633649962187e+00
1.130037153472420641e+01,2.886878829602268937e+00
1.132037725064304112e+01,2.299573783316605446e+00
1.134038296656187583e+01,2.576385713711091263e+00
1.136038868248070877e+01,3.071395937167160195e+00
1.138039439839954348e+01,2.971366512026443196e+00
1.140040011431837641e+01,2.053388210596434504e+00
1.142040583023721112e+01,2.309311108780994104e+00
1.144041154615604405e+01,2.871503698627041690e+00
1.146041726207487876e+01,2.167687915915954999e+00
1.148042297799371170e+01,2.150617451949439207e+00
1.150042869391254641e+01,2.973985347151547831e+00
1.152043440983138112e+01,2.752108134436703324e+00
1.154044012575021405e+01,2.352876769642095578e+00
1.156044584166904876e+01,1.823757456863231763e+00
1.158045155758788169e+01,1.467766131104047744e+00
1.160045727350671640e+01,2.164211379892654108e+00
1.162046298942555111e+01,2.224613455596189837e+00
1.164046870534438405e+01,2.702120418290841819e+00
1.166047442126321876e+01,2.292052365441658246e+00
1.168048013718205169e+01,2.367714916271331571e+00
1.170048585310088640e+01,3.040099255353506447e+00
1.172049156901971934e+01,1.981879838853737974e+00
1.174049728493855405e+01,1.728292093202762336e+00
1.176050300085738698e+01,2.529412495483660095e+00
1.178050871677622169e+01,2.216531928399874118e+00
1.180051443269505640e+01,1.426866309133323352e+00
1.182052014861388933e+01,2.668660823662157622e+00
1.184052586453272404e+01,3.107358611256732850e+00
1.186053158045155698e+01,2.558273459945146655e+00
1.188053729637039169e+01,2.112607919632243370e+00
1.190054301228922640e+01,2.767679955362353006e+00
1.192054872820805933e+01,1.543179297186159538e+00
1.194055444412689404e+01,2.176232912355505533e+00
1.196056016004572697e+01,2.198884059290201254e+00
1.198056587596456168e+01,2.424922247422405697e+00
1.200057159188339639e+01,1.870572563634696150e+00
1.202057730780222933e+01,2.496786857946244886e+00
1.204058302372106226e+01,1.688125313556633644e+00
1.206058873963989697e+01,1.630560084521174069e+00
1.208059445555873168e+01,3.004799612360803174e+00
1.210060017147756461e+01,2.281377758154504054e+00
1.212060588739639932e+01,1.703328086629294358e+00
1.214061160331523226e+01,2.175438954969404204e+00
1.216061731923406697e+01,2.249373971403175076e+00
1.218062303515290168e+01,2.374228755614572250e+00
1.220062875107173461e+01,2.510753408039811507e+00
1.222063446699056932e+01,1.397527683275185728e+00
1.224064018290940226e+01,1.624956667446397773e+00
1.226064589882823697e+01,2.674903985562760322e+00
1.228065161474707168e+01,1.628830264269167216e+00
1.230065733066590461e+01,2.565460792170733306e+00
1.232066304658473754e+01,2.388074532211291068e+00
1.234066876250357225e+01,2.042661844375841529e+00
1.236067447842240696e+01,2.500163081072484417e+00
1.238068019434123990e+01,2.894276379654680653e+00
1.240068591026007461e+01,2.404742638098648744e+00
1.242069162617890754e+01,2.161854557213036099e+00
1.244069734209774225e+01,2.478189285437527811e+00
1.246070305801657696e+01,2.130933754687140969e+00
1.248070877393540989e+01,2.081375510084298330e+00
1.250071448985424460e+01,2.790465153807057952e+00
1.252072020577307754e+01,2.588074390196719587e+00
1.254072592169191225e+01,1.834168170180271007e+00
1.256073163761074696e+01,2.495658412550269212e+00
1.258073735352957989e+01,1.821703618301100391e+00
1.260074306944841460e+01,2.122849061112339619e+00
1.262074878536724754e+01,2.004736315183203388e+00
1.264075450128608225e+01,2.096461237975736136e+00
1.266076021720491518e+01,2.038598581307232482e+00
1.268076593312374989e+01,1.672385564341715369e+00
1.270077164904258282e+01,2.418292483630630763e+00
1.272077736496141753e+01,2.964342754113122425e+00
1.274078308088025224e+01,2.193888030227604702e+00
1.276078879679908518e+01,2.426908209797979943e+00
1.278079451271791989e+01,2.387854182304324002e+00
1.280080022863675282e+01,1.582891670133333095e+00
1.282080594455558753e+01,2.153604689456285914e+00
1.284081166047442224e+01,2.121017434045175953e+00
1.286081737639325517e+01,2.366908756844979145e+00
1.288082309231208988e+01,1.864423673360782185e+00
1.290082880823092282e+01,1.616397853511478022e+00
1.292083452414975753e+01,2.083714802414313283e+00
1.294084024006859224e+01,2.415446344165502079e+00
1.296084595598742517e+01,2.082142954957655778e+00
1.298085167190625810e+01,2.010937945484466027e+00
1.300085738782509281e+01,2.220225471303002962e+00
1.302086310374392752e+01,2.089781382154472844e+00
1.304086881966276046e+01,1.551421464207441980e+00
1.306087453558159517e+01,1.660595582293103334e+00
1.308088025150042810e+01,2.821637077761836032e+00
1.310088596741926281e+01,1.780257830996666790e+00
1.312089168333809752e+01,2.272664047081431882e+00
1.314089739925693046e+01,2.626386759311742480e+00
1.316090311517576517e+01,1.947512281159490488e+00
1.318090883109459810e+01,2.340739087644851502e+00
1.320091454701343281e+01,2.187644589629688774e+00
1.322092026293226752e+01,1.908173020488484362e+00
1.324092597885110045e+01,2.999258131028168961e+00
1.326093169476993339e+01,2.032382975379064760e+00
1.328093741068876810e+01,1.922159495285199027e+00
1.330094312660760281e+01,2.542698876222750037e+00
1.332094884252643574e+01,1.895472926582721929e+00
1.334095455844527045e+01,2.433353525644429638e+00
1.336096027436410338e+01,1.558746216480006108e+00
1.338096599028293809e+01,2.400570555194117883e+00
1.340097170620177280e+01,2.178779334981998606e+00
1.342097742212060574e+01,2.885103478481013894e+00
1.344098313803944045e+01,1.987814858949731756e+00
1.346098885395827338e+01,2.026838909681082601e+00
1.348099456987710809e+01,2.812066318290821876e+00
1.350100028579594280e+01,2.997641302365146920e+00
1.352100600171477573e+01,2.374816878787003205e+00
1.354101171763361044e+01,1.905434873453980771e+00
1.356101743355244338e+01,2.663032672589260574e+00
1.358102314947127809e+01,2.152291250554160928e+00
1.360102886539011102e+01,2.851130509842185745e+00
1.362103458130894573e+01,2.937912064421518199e+00
1.364104029722777867e+01,1.618560016408333802e+00
1.366104601314661338e+01,2.938518660991583431e+00
1.368105172906544809e+01,2.719887715256637417e+00
1.370105744498428102e+01,2.931431007553982226e+00
1.372106316090311573e+01,3.167061859197313645e+00
1.374106887682194866e+01,2.703234179367604462e+00
1.376107459274078337e+01,2.407262808526578368e+00
1.378108030865961808e+01,2.230825974901991415e+00
1.380108602457845102e+01,2.363042938624479561e+00
1.382109174049728573e+01,2.516769175064658359e+00
1.384109745641611866e+01,2.132330061100929264e+00
1.386110317233495337e+01,3.514994991912244959e+00
1.388110888825378808e+01,2.440278461048314362e+00
1.390111460417262101e+01,3.084235395810470237e+00
1.392112032009145395e+01,2.301290482546977323e+00
1.394112603601028866e+01,2.724944395623926319e+00
1.396113175192912337e+01,2.564865145454052531e+00
1.398113746784795630e+01,3.019279751433879611e+00
1.400114318376679101e+01,2.473265750115358319e+00
1.402114889968562395e+01,3.299585975449761399e+00
1.404115461560445866e+01,2.538396190446704281e+00
1.406116033152329337e+01,3.047588581454734324e+00
1.408116604744212630e+01,2.997034536867130949e+00
1.410117176336095923e+01,3.627390503439691383e+00
1.412117747927979394e+01,2.667957622313731569e+00
1.414118319519862865e+01,2.925620012294598116e+00
1.416118891111746336e+01,2.535793111059358562e+00
1.418119462703629630e+01,2.747862757902363118e+00
1.420120034295512923e+01,2.552467731696569153e+00
1.422120605887396394e+01,3.320321006791724372e+00
1.424121177479279865e+01,2.845991230725345211e+00
1.426121749071163336e+01,3.317487134887847411e+00
1.428122320663046629e+01,2.548342038097576978e+00
1.430122892254929923e+01,2.993864835202290742e+00
1.432123463846813394e+01,3.370762929119602624e+00
1.434124035438696865e+01,2.605830337328042923e+00
1.436124607030580158e+01,3.417197219688929088e+00
1.438125178622463629e+01,2.806502381848129168e+00
1.440125750214346922e+01,2.909699808404971666e+00
1.442126321806230393e+01,2.844981892468435358e+00
1.444126893398113864e+01,3.128353645687996121e+00
1.446127464989997158e+01,3.434069274077322209e+00
1.448128036581880451e+01,2.909105039907284862e+00
1.450128608173763922e+01,3.078086699606209287e+00
1.452129179765647393e+01,3.120199100436583883e+00
1.454129751357530864e+01,3.071189455103558785e+00
1.456130322949414158e+01,3.047325450308805195e+00
1.458130894541297451e+01,3.247571502185855774e+00
1.460131466133180922e+01,2.893367766577556566e+00
1.462132037725064393e+01,3.221760756206517584e+00
1.464132609316947686e+01,3.429306880511024946e+00
1.466133180908831157e+01,2.737199825860341384e+00
1.468133752500714451e+01,2.880126878079962260e+00
1.470134324092597922e+01,3.011464737784383949e+00
1.472134895684481393e+01,3.900000511514856605e+00
1.474135467276364686e+01,3.485419757356343240e+00
1.476136038868247979e+01,3.618191607759288608e+00
1.478136610460131450e+01,2.923927340189820701e+00
1.480137182052014921e+01,3.710241268164906181e+00
1.482137753643898392e+01,3.503480204106835139e+00
1.484138325235781686e+01,4.169278128344984680e+00
1.486138896827664979e+01,3.021542610578394239e+00
1.488139468419548450e+01,4.050860120686103016e+00
1.490140040011431921e+01,2.798737813208200365e+00
1.492140611603315392e+01,4.317866575312958588e+00
1.494141183195198685e+01,3.035541041138545282e+00
1.496141754787081979e+01,3.436997722704991709e+00
1.498142326378965450e+01,3.944419945808765871e+00
1.500142897970848921e+01,3.983019009784007913e+00
1.502143469562732214e+01,4.265612806966927906e+00
1.504144041154615508e+01,3.673658580588756273e+00
1.506144612746498979e+01,3.231780799627883116e+00
1.508145184338382450e+01,4.544873850094681700e+00
1.510145755930265921e+01,4.219739533422998790e+00
1.512146327522149214e+01,4.152199522003808596e+00
1.514146899114032507e+01,4.810651510663261909e+00
1.516147470705915978e+01,3.315013586035369109e+00
1.518148042297799449e+01,3.671932241502541050e+00
1.520148613889682920e+01,4.399153957344081434e+00
1.522149185481566214e+01,4.304662834635609059e+00
1.524149757073449507e+01,3.939659710994713571e+00
1.526150328665332978e+01,4.454957463208813806e+00
1.528150900257216449e+01,3.666953364449694774e+00
1.530151471849099742e+01,4.401428138865476569e+00
1.532152043440983036e+01,4.466626763903130737e+00
1.534152615032866507e+01,3.950865252383227055e+00
1.536153186624749978e+01,3.953662901761278103e+00
1.538153758216633449e+01,3.483430089545315855e+00
1.540154329808516742e+01,3.271476233131691558e+00
1.542154901400400036e+01,3.305291991183865630e+00
1.544155472992283507e+01,4.127112164385694726e+00
1.546156044584166978e+01,4.125551306599044565e+00
1.548156616176050449e+01,2.944189859061182357e+00
1.550157187767933742e+01,3.911799560159043843e+00
1.552157759359817035e+01,2.779637248964816898e+00
1.554158330951700506e+01,3.272551439904963999e+00
1.556158902543583977e+01,2.518984346379009587e+00
1.558159474135467271e+01,3.350043381551612853e+00
1.560160045727350742e+01,3.088667879861338506e+00
1.562160617319234035e+01,2.717248667287361474e+00
1.564161188911117506e+01,2.949889000974510012e+00
1.566161760503000977e+01,2.838451341132903316e+00
1.568162332094884270e+01,3.180554405110497918e+00
1.570162903686767564e+01,2.262498112404338180e+00
1.572163475278651035e+01,3.139902332913241167e+00
1.574164046870534506e+01,3.079548870677200512e+00
1.576164618462417977e+01,2.711402693731526092e+00
1.578165190054301270e+01,3.033172173784320691e+00
1.580165761646184563e+01,2.730681270314416764e+00
1.582166333238068034e+01,2.659963734965015369e+00
1.584166904829951505e+01,3.270567764329788574e+00
1.586167476421834799e+01,3.033060928268401568e+00
1.588168048013718270e+01,2.721077856431804332e+00
1.590168619605601563e+01,2.969736017021528340e+00
1.592169191197485034e+01,2.972968739795934567e+00
1.594169762789368505e+01,3.234002989074756584e+00
1.596170334381251799e+01,2.861111616265409108e+00
1.598170905973135092e+01,2.704712282467481188e+00
1.600171477565018563e+01,3.165066142737180677e+00
1.602172049156902034e+01,3.172356085549903781e+00
1.604172620748785505e+01,3.469373415544778183e+00
1.606173192340668976e+01,2.711144932058746626e+00
1.608173763932552092e+01,2.976306263809223474e+00
1.610174335524435563e+01,2.722891216394621949e+00
1.612174907116319034e+01,3.494552288593046008e+00
1.614175478708202505e+01,2.561794598432892478e+00
1.616176050300085620e+01,3.055751649418946947e+00
1.618176621891969091e+01,3.539679179950543819e+00
1.620177193483852562e+01,2.751023282659528668e+00
1.622177765075736033e+01,3.020014435269696040e+00
1.624178336667619504e+01,3.341935214221154915e+00
1.626178908259502620e+01,2.817090675965735258e+00
1.628179479851386091e+01,2.884163871152058967e+00
1.630180051443269562e+01,2.616010609357105388e+00
1.632180623035153033e+01,3.132939013132983952e+00
1.634181194627036149e+01,2.928863448694902338e+00
1.636181766218919620e+01,3.929806526751836948e+00
1.638182337810803091e+01,2.584088385760275663e+00
1.640182909402686562e+01,3.497890879337844705e+00
1.642183480994570033e+01,2.827303723593245444e+00
1.644184052586453504e+01,3.163945182489946273e+00
1.646184624178336620e+01,2.267998744492984997e+00
1.648185195770220091e+01,3.383722009168507405e+00
1.650185767362103562e+01,3.589331527418210044e+00
1.652186338953986677e+01,3.622746176815832442e+00
1.654186910545870148e+01,3.111973461476431169e+00
1.656187482137753619e+01,2.460326687632384157e+00
1.658188053729637090e+01,2.729662692977124827e+00
1.660188625321520561e+01,2.739855125050284279e+00
1.662189196913404032e+01,2.593750557837243065e+00
1.664189768505287148e+01,4.002721997723513780e+00
1.666190340097170619e+01,3.085088520632388587e+00
1.668190911689054090e+01,3.062096346398924585e+00
1.670191483280937561e+01,3.030160760936374764e+00
1.672192054872820677e+01,3.703798530607953499e+00
1.674192626464704148e+01,2.732795220703210681e+00
1.676193198056587619e+01,2.953165064905232562e+00
1.678193769648471090e+01,3.831941612111698259e+00
1.680194341240354561e+01,2.719767031864630979e+00
1.682194912832238032e+01,3.906711837581140934e+00
1.684195484424121148e+01,3.083173556745239630e+00
1.686196056016004619e+01,3.004528040672348244e+00
1.688196627607888090e+01,2.899032830054632193e+00
1.690197199199771205e+01,3.221203798283755582e+00
1.692197770791654676e+01,3.668620061595261994e+00
1.694198342383538147e+01,3.276837063071981859e+00
1.696198913975421618e+01,3.737061867836980689e+00
1.698199485567305089e+01,3.188920086968166867e+00
1.700200057159188560e+01,2.977094373216107037e+00
1.702200628751071676e+01,3.052475409455305044e+00
1.704201200342955147e+01,3.260269986412696497e+00
1.706201771934838618e+01,3.181126460868180406e+00
1.708202343526722089e+01,3.902284427401330191e+00
1.710202915118605205e+01,3.533796742967451276e+00
1.712203486710488676e+01,2.918200398447739374e+00
1.714204058302372147e+01,2.854237642706612732e+00
1.716204629894255618e+01,3.860387220819431864e+00
1.718205201486139089e+01,3.521154961534374905e+00
1.720205773078022204e+01,3.790526173458597547e+00
1.722206344669905675e+01,3.013978115794611057e+00
1.724206916261789146e+01,4.219558889222037479e+00
1.726207487853672617e+01,3.419871433708499886e+00
1.728208059445555733e+01,3.063777148453686205e+00
1.730208631037439204e+01,3.769437299580096656e+00
1.732209202629322675e+01,4.033629769900716866e+00
1.734209774221206146e+01,3.814887986037717393e+00
1.736210345813089617e+01,4.125039894611479241e+00
1.738210917404973088e+01,3.729856623037259400e+00
1.740211488996856204e+01,3.703072486745051961e+00
1.742212060588739675e+01,3.784749337085258070e+00
1.744212632180623146e+01,3.583485177930250565e+00
1.746213203772506262e+01,3.660199758475489062e+00
1.748213775364389733e+01,3.664189550997207334e+00
1.750214346956273204e+01,3.809550562793015960e+00
1.752214918548156675e+01,3.925606195468791526e+00
1.754215490140040146e+01,4.208863210226795992e+00
1.756216061731923617e+01,3.928414709949607175e+00
1.758216633323806732e+01,3.609553656131674781e+00
1.760217204915690203e+01,3.907612405995212423e+00
1.762217776507573674e+01,4.297820299290487256e+00
1.764218348099457145e+01,3.430872683276846580e+00
1.766218919691340261e+01,3.663807017581755865e+00
1.768219491283223732e+01,4.384946019670856288e+00
1.770220062875107203e+01,4.879642685246007972e+00
1.772220634466990674e+01,4.036055169514716212e+00
1.774221206058874145e+01,4.466772483917398340e+00
1.776221777650757616e+01,4.253290783449780399e+00
1.778222349242640732e+01,5.051723333661058746e+00
1.780222920834524203e+01,4.446580845041331997e+00
1.782223492426407674e+01,5.361144668037333361e+00
1.784224064018290790e+01,5.265268746460334270e+00
1.786224635610174261e+01,5.388517528018569536e+00
1.788225207202057732e+01,6.049079071107689387e+00
1.790225778793941203e+01,5.234730462719218380e+00
1.792226350385824674e+01,5.232107603400756091e+00
1.794226921977708145e+01,5.272062358060258802e+00
1.796227493569591260e+01,5.458715363031217294e+00
