angle,intensity
1.000000000000000000e+01,4.738119899217204534e+01
1.002000571591883471e+01,4.851396850734287369e+01
1.004001143183766764e+01,4.895922498489036911e+01
1.006001714775650235e+01,4.935701610902636816e+01
1.008002286367533529e+01,4.936668499632325080e+01
1.010002857959417000e+01,5.056130367969736028e+01
1.012003429551300293e+01,5.005154993624110205e+01
1.014004001143183764e+01,5.020301793582036254e+01
1.016004572735067235e+01,5.044004139916499696e+01
1.018005144326950528e+01,5.019239571100818154e+01
1.020005715918833999e+01,4.992641272313109368e+01
1.022006287510717293e+01,5.021300699701800596e+01
1.024006859102600764e+01,4.999626288240630601e+01
1.026007430694484057e+01,4.867516925405937656e+01
1.028008002286367528e+01,4.812187209810985422e+01
1.030008573878250999e+01,4.668533826768266692e+01
1.032009145470134293e+01,4.635503914304503326e+01
1.034009717062017764e+01,4.533443127960313745e+01
1.036010288653901057e+01,4.340220174209773063e+01
1.038010860245784528e+01,4.159756805843046834e+01
1.040011431837667999e+01,4.008102476816274162e+01
1.042012003429551292e+01,3.797726995403063199e+01
1.044012575021434763e+01,3.550753670151009800e+01
1.046013146613318057e+01,3.301759568783418786e+01
1.048013718205201528e+01,3.060664204530151267e+01
1.050014289797084821e+01,2.745076998014040370e+01
1.052014861388968292e+01,2.561447521025592877e+01
1.054015432980851585e+01,2.354583253997066805e+01
1.056016004572735056e+01,2.127894217047794001e+01
1.058016576164618527e+01,1.919454253436797941e+01
1.060017147756501821e+01,1.681401786393560016e+01
1.062017719348385292e+01,1.565773116448974989e+01
1.064018290940268585e+01,1.402302588864667854e+01
1.066018862532152056e+01,1.212381840106945852e+01
1.068019434124035527e+01,1.126842132456632761e+01
1.070020005715918820e+01,9.650578118829693963e+00
1.072020577307802292e+01,9.329455196607449707e+00
1.074021148899685585e+01,7.991295922163892840e+00
1.076021720491569056e+01,8.289999267912740777e+00
1.078022292083452349e+01,6.813941570140626069e+00
1.080022863675335820e+01,7.095159564352225168e+00
1.082023435267219291e+01,7.069267744383409990e+00
1.084024006859102585e+01,6.337467135247779382e+00
1.086024578450986056e+01,6.211643358630753120e+00
1.088025150042869349e+01,5.309761257571348203e+00
1.090025721634752820e+01,6.271876986035939794e+00
1.092026293226636113e+01,5.606110774923021012e+00
1.094026864818519584e+01,5.602829315977115421e+00
1.096027436410403055e+01,5.720013247971367676e+00
1.098028008002286349e+01,5.764700036203726619e+00
1.100028579594169820e+01,5.436085877642891084e+00
1.102029151186053113e+01,5.333059466240142044e+00
1.104029722777936584e+01,5.526006932787421277e+00
1.106030294369819877e+01,5.021591653511190856e+00
1.108030865961703348e+01,5.500745478599948335e+00
1.110031437553586819e+01,5.198323894733978712e+00
1.112032009145470113e+01,5.356199301981204641e+00
1.114032580737353584e+01,5.217552582133810901e+00
1.116033152329236877e+01,4.918414605620910152e+00
1.118033723921120348e+01,4.538120236556124176e+00
1.120034295513003642e+01,4.802786419324479361e+00
1.122034867104887113e+01,4.689347182868849551e+00
1.124035438696770584e+01,5.138636813378554713e+00
1.126036010288653877e+01,4.616161791312592300e+00
1.128036581880537348e+01,5.208403525887370655e+00
1.130037153472420641e+01,4.796049840079698257e+00
1.132037725064304112e+01,4.960671300205532042e+00
1.134038296656187583e+01,5.234977986457463039e+00
1.136038868248070877e+01,5.420607753973831322e+00
1.138039439839954348e+01,5.215041950565844076e+00
1.140040011431837641e+01,4.754560258622000823e+00
1.142040583023721112e+01,4.832458769175596913e+00
1.144041154615604405e+01,5.888999113924880291e+00
1.146041726207487876e+01,5.356651561045978838e+00
1.148042297799371170e+01,5.406638897833053292e+00
1.150042869391254641e+01,4.883501947990824377e+00
1.152043440983138112e+01,5.743375246166737114e+00
1.154044012575021405e+01,5.618715257360089588e+00
1.156044584166904876e+01,4.841160057548004936e+00
1.158045155758788169e+01,5.111857920808267508e+00
1.160045727350671640e+01,5.446397793288458189e+00
1.162046298942555111e+01,5.741815484155687876e+00
1.164046870534438405e+01,5.910523965647512590e+00
1.166047442126321876e+01,5.710682611442258860e+00
1.168048013718205169e+01,5.716432611126316843e+00
1.170048585310088640e+01,6.616012674593863885e+00
1.172049156901971934e+01,6.112572141539619253e+00
1.174049728493855405e+01,6.265654388184897172e+00
1.176050300085738698e+01,6.497197320864419368e+00
1.178050871677622169e+01,6.870789838850011932e+00
1.180051443269505640e+01,7.000509319217151472e+00
1.182052014861388933e+01,6.505058207475435950e+00
1.184052586453272404e+01,6.827464746515358840e+00
1.186053158045155698e+01,6.734490011704245660e+00
1.188053729637039169e+01,7.766183448131489087e+00
1.190054301228922640e+01,6.609925070152922189e+00
1.192054872820805933e+01,7.812665992549028715e+00
1.194055444412689404e+01,7.647421379760265481e+00
1.196056016004572697e+01,7.251764136536118954e+00
1.198056587596456168e+01,7.636325235511668197e+00
1.200057159188339639e+01,7.697740298071582998e+00
1.202057730780222933e+01,8.499867156375522370e+00
1.204058302372106226e+01,8.527686620745209112e+00
1.206058873963989697e+01,7.761396246850441827e+00
1.208059445555873168e+01,8.258785055298165645e+00
1.210060017147756461e+01,8.717472491105290544e+00
1.212060588739639932e+01,8.165619336986070564e+00
1.214061160331523226e+01,8.887649514014023922e+00
1.216061731923406697e+01,9.283133558043218159e+00
1.218062303515290168e+01,8.888635824494533821e+00
1.220062875107173461e+01,9.803800262914965202e+00
1.222063446699056932e+01,1.033256285510901051e+01
1.224064018290940226e+01,1.005656259181774281e+01
1.226064589882823697e+01,1.112681897251039231e+01
1.228065161474707168e+01,1.006366642751565266e+01
1.230065733066590461e+01,1.134483516727782515e+01
1.232066304658473754e+01,1.062476655027696282e+01
1.234066876250357225e+01,1.127023731205887636e+01
1.236067447842240696e+01,1.203248075197421407e+01
1.238068019434123990e+01,1.185416783394543216e+01
1.240068591026007461e+01,1.231242954390767430e+01
1.242069162617890754e+01,1.250864905701162755e+01
1.244069734209774225e+01,1.354827704889046558e+01
1.246070305801657696e+01,1.341479981912769048e+01
1.248070877393540989e+01,1.422239870972571474e+01
1.250071448985424460e+01,1.379468100021134802e+01
1.252072020577307754e+01,1.420821186312477735e+01
1.254072592169191225e+01,1.484636477047060410e+01
1.256073163761074696e+01,1.582849461394435053e+01
1.258073735352957989e+01,1.510963652199692397e+01
1.260074306944841460e+01,1.562476662621917711e+01
1.262074878536724754e+01,1.550262502180705937e+01
1.264075450128608225e+01,1.580150758053171067e+01
1.266076021720491518e+01,1.682294709972491731e+01
1.268076593312374989e+01,1.685080932897704287e+01
1.270077164904258282e+01,1.826492755105861221e+01
1.272077736496141753e+01,1.892257607396111041e+01
1.274078308088025224e+01,1.886564310179304726e+01
1.276078879679908518e+01,1.966423611881297262e+01
1.278079451271791989e+01,1.931769710912921312e+01
1.280080022863675282e+01,2.100181315331959553e+01
1.282080594455558753e+01,2.061655790039689151e+01
1.284081166047442224e+01,2.132734798422394462e+01
1.286081737639325517e+01,2.192991261756585430e+01
1.288082309231208988e+01,2.284156597899784202e+01
1.290082880823092282e+01,2.333706496240541384e+01
1.292083452414975753e+01,2.353768121850489692e+01
1.294084024006859224e+01,2.441408710060562015e+01
1.296084595598742517e+01,2.564458790269004851e+01
1.298085167190625810e+01,2.582898409886540492e+01
1.300085738782509281e+01,2.645737949790580501e+01
1.302086310374392752e+01,2.756242745053864951e+01
1.304086881966276046e+01,2.728195168646999491e+01
1.306087453558159517e+01,2.933816291342037630e+01
1.308088025150042810e+01,2.987898017333773026e+01
1.310088596741926281e+01,3.001986836620634236e+01
1.312089168333809752e+01,3.102842779041224830e+01
1.314089739925693046e+01,3.188460719651368080e+01
1.316090311517576517e+01,3.266213561650748431e+01
1.318090883109459810e+01,3.319162391475576612e+01
1.320091454701343281e+01,3.453252273302911846e+01
1.322092026293226752e+01,3.547004861014102772e+01
1.324092597885110045e+01,3.564053065909935469e+01
1.326093169476993339e+01,3.690902253837033697e+01
1.328093741068876810e+01,3.756339220922313160e+01
1.330094312660760281e+01,3.802485374314100852e+01
1.332094884252643574e+01,3.881645386012564813e+01
1.334095455844527045e+01,3.945410515162630816e+01
1.336096027436410338e+01,4.030715812624403327e+01
1.338096599028293809e+01,4.148724813103622466e+01
1.340097170620177280e+01,4.153520747857172069e+01
1.342097742212060574e+01,4.256415346837937363e+01
1.344098313803944045e+01,4.301862968322180336e+01
1.346098885395827338e+01,4.367807924486420745e+01
1.348099456987710809e+01,4.515992143079978405e+01
1.350100028579594280e+01,4.587742397624376878e+01
1.352100600171477573e+01,4.485297211297881859e+01
1.354101171763361044e+01,4.573645911901743943e+01
1.356101743355244338e+01,4.741105554248029819e+01
1.358102314947127809e+01,4.676582420299629206e+01
1.360102886539011102e+01,4.731124696012585673e+01
1.362103458130894573e+01,4.799361185408282182e+01
1.364104029722777867e+01,4.922856022821717659e+01
1.366104601314661338e+01,4.920285608489790974e+01
1.368105172906544809e+01,4.943716444019894851e+01
1.370105744498428102e+01,5.005196890656316100e+01
1.372106316090311573e+01,5.107103640799375199e+01
1.374106887682194866e+01,5.156352539093430210e+01
1.376107459274078337e+01,5.143542293648843611e+01
1.378108030865961808e+01,5.333162560206666569e+01
1.380108602457845102e+01,5.335558579347213737e+01
1.382109174049728573e+01,5.405905587406202528e+01
1.384109745641611866e+01,5.508827520227518448e+01
1.386110317233495337e+01,5.611271508294805699e+01
1.388110888825378808e+01,5.568151550546743067e+01
1.390111460417262101e+01,5.681582316646336039e+01
1.392112032009145395e+01,5.632503642537425037e+01
1.394112603601028866e+01,5.692055644619003374e+01
1.396113175192912337e+01,5.694058440139438915e+01
1.398113746784795630e+01,5.680209649060000743e+01
1.400114318376679101e+01,5.705885051432240118e+01
1.402114889968562395e+01,5.595270546141162527e+01
1.404115461560445866e+01,5.505896238331801840e+01
1.406116033152329337e+01,5.506795199307785538e+01
1.408116604744212630e+01,5.452156723131723481e+01
1.410117176336095923e+01,5.272422923330349676e+01
1.412117747927979394e+01,5.305183218643489340e+01
1.414118319519862865e+01,5.099485677523807681e+01
1.416118891111746336e+01,4.973043143999362314e+01
1.418119462703629630e+01,4.958496891232694992e+01
1.420120034295512923e+01,4.803267538874132470e+01
1.422120605887396394e+01,4.743836008702084683e+01
1.424121177479279865e+01,4.640229278323377571e+01
1.426121749071163336e+01,4.591243093372491302e+01
1.428122320663046629e+01,4.556533708260830196e+01
1.430122892254929923e+01,4.563116030667804779e+01
1.432123463846813394e+01,4.532493720188197273e+01
1.434124035438696865e+01,4.587920634539116094e+01
1.436124607030580158e+01,4.536145404313215579e+01
1.438125178622463629e+01,4.731330784910788623e+01
1.440125750214346922e+01,4.689975682619927255e+01
1.442126321806230393e+01,4.771028263021683813e+01
1.444126893398113864e+01,4.940194909799333800e+01
1.446127464989997158e+01,4.932671436125415454e+01
1.448128036581880451e+01,5.141429619192690836e+01
1.450128608173763922e+01,5.224617242710066023e+01
1.452129179765647393e+01,5.278387181831708119e+01
1.454129751357530864e+01,5.403727528016125348e+01
1.456130322949414158e+01,5.551427618653282536e+01
1.458130894541297451e+01,5.601963353155107939e+01
1.460131466133180922e+01,5.759971554171256258e+01
1.462132037725064393e+01,5.942817957371795501e+01
1.464132609316947686e+01,5.989230835080645221e+01
1.466133180908831157e+01,6.148285714566176097e+01
1.468133752500714451e+01,6.216443872679708704e+01
1.470134324092597922e+01,6.221348216469533554e+01
1.472134895684481393e+01,6.305778427406430353e+01
1.474135467276364686e+01,6.448150255519001917e+01
1.476136038868247979e+01,6.450491416003730194e+01
1.478136610460131450e+01,6.374785324432652089e+01
1.480137182052014921e+01,6.414118791038845302e+01
1.482137753643898392e+01,6.418925394241649940e+01
1.484138325235781686e+01,6.357535086281167480e+01
1.486138896827664979e+01,6.182824117991582114e+01
1.488139468419548450e+01,6.109086859484891363e+01
1.490140040011431921e+01,5.988755303304016309e+01
1.492140611603315392e+01,5.803835241963967917e+01
1.494141183195198685e+01,5.585880520160549167e+01
1.496141754787081979e+01,5.380427914022743607e+01
1.498142326378965450e+01,5.138691904234733698e+01
1.500142897970848921e+01,4.949397399176751833e+01
1.502143469562732214e+01,4.721606195970923636e+01
1.504144041154615508e+01,4.402528299872551543e+01
1.506144612746498979e+01,4.213378651478805637e+01
1.508145184338382450e+01,3.954265775795295212e+01
1.510145755930265921e+01,3.816582616370268966e+01
1.512146327522149214e+01,3.504674727650304078e+01
1.514146899114032507e+01,3.377350761373169519e+01
1.516147470705915978e+01,3.136388548225627915e+01
1.518148042297799449e+01,2.979475282558955485e+01
1.520148613889682920e+01,2.804879015494286421e+01
1.522149185481566214e+01,2.672663049983804484e+01
1.524149757073449507e+01,2.557024240672481596e+01
1.526150328665332978e+01,2.412422388167497189e+01
1.528150900257216449e+01,2.246420196314631212e+01
1.530151471849099742e+01,2.189923587836230467e+01
1.532152043440983036e+01,2.118827042563502516e+01
1.534152615032866507e+01,2.047475022133676603e+01
1.536153186624749978e+01,2.036818506014549968e+01
1.538153758216633449e+01,1.894593648128333996e+01
1.540154329808516742e+01,1.952038209512937783e+01
1.542154901400400036e+01,1.994659055626563671e+01
1.544155472992283507e+01,1.891050735400828842e+01
1.546156044584166978e+01,1.888787806805708414e+01
1.548156616176050449e+01,1.926971608636854327e+01
1.550157187767933742e+01,1.965341700207038755e+01
1.552157759359817035e+01,2.082224100091264773e+01
1.554158330951700506e+01,2.015483111863045096e+01
1.556158902543583977e+01,2.075882158482288986e+01
1.558159474135467271e+01,2.098475545576587820e+01
1.560160045727350742e+01,2.198271206448435677e+01
1.562160617319234035e+01,2.173158185750981986e+01
1.564161188911117506e+01,2.237068204332808108e+01
1.566161760503000977e+01,2.292100133400224848e+01
1.568162332094884270e+01,2.439387265175286501e+01
1.570162903686767564e+01,2.407984712945190253e+01
1.572163475278651035e+01,2.560365262692186406e+01
1.574164046870534506e+01,2.563253922660019057e+01
1.576164618462417977e+01,2.580933509376925272e+01
1.578165190054301270e+01,2.693552286161358822e+01
1.580165761646184563e+01,2.823329692954888159e+01
1.582166333238068034e+01,2.799202357979468303e+01
1.584166904829951505e+01,2.884444369308169698e+01
1.586167476421834799e+01,2.963696640468625532e+01
1.588168048013718270e+01,3.032222700502186186e+01
1.590168619605601563e+01,3.179727208335544120e+01
1.592169191197485034e+01,3.229373571308371282e+01
1.594169762789368505e+01,3.280728412011164608e+01
1.596170334381251799e+01,3.353111487248136768e+01
1.598170905973135092e+01,3.514071924525338630e+01
1.600171477565018563e+01,3.542739586343378022e+01
1.602172049156902034e+01,3.613813874244511481e+01
1.604172620748785505e+01,3.685748844768200883e+01
1.606173192340668976e+01,3.729538824081894433e+01
1.608173763932552092e+01,3.805853610821872479e+01
1.610174335524435563e+01,3.788082931358164274e+01
1.612174907116319034e+01,3.878388571595954204e+01
1.614175478708202505e+01,3.798446635773176183e+01
1.616176050300085620e+01,3.799800691136714192e+01
1.618176621891969091e+01,3.822027470711790897e+01
1.620177193483852562e+01,3.750403107382976486e+01
1.622177765075736033e+01,3.753417550433935901e+01
1.624178336667619504e+01,3.712947210115658692e+01
1.626178908259502620e+01,3.663094463032000192e+01
1.628179479851386091e+01,3.595443037790846574e+01
1.630180051443269562e+01,3.521045564315840437e+01
1.632180623035153033e+01,3.503889275447885865e+01
1.634181194627036149e+01,3.386734939830479618e+01
1.636181766218919620e+01,3.318688340485504540e+01
1.638182337810803091e+01,3.304962344589151968e+01
1.640182909402686562e+01,3.221660862460691277e+01
1.642183480994570033e+01,3.227525634363215090e+01
1.644184052586453504e+01,3.129007111279760167e+01
1.646184624178336620e+01,3.133953234561052881e+01
1.648185195770220091e+01,3.238189913005982135e+01
1.650185767362103562e+01,3.293201475078003426e+01
1.652186338953986677e+01,3.236037570859316048e+01
1.654186910545870148e+01,3.230513810641750183e+01
1.656187482137753619e+01,3.364262122975979707e+01
1.658188053729637090e+01,3.379743306550822268e+01
1.660188625321520561e+01,3.362852488477408031e+01
1.662189196913404032e+01,3.469491411145210691e+01
1.664189768505287148e+01,3.481595199496554471e+01
1.666190340097170619e+01,3.672081395204458687e+01
1.668190911689054090e+01,3.659050397767541085e+01
1.670191483280937561e+01,3.800043547167004476e+01
1.672192054872820677e+01,3.759245547155440192e+01
1.674192626464704148e+01,3.874213442811327468e+01
1.676193198056587619e+01,3.913776778311605398e+01
1.678193769648471090e+01,3.876343574310636342e+01
1.680194341240354561e+01,3.987211288907397488e+01
1.682194912832238032e+01,3.908397389267537392e+01
1.684195484424121148e+01,3.952315689551615918e+01
1.686196056016004619e+01,3.963631417744295504e+01
1.688196627607888090e+01,3.860691012031746538e+01
1.690197199199771205e+01,3.822299941595674966e+01
1.692197770791654676e+01,3.782762400921989610e+01
1.694198342383538147e+01,3.602052534245677862e+01
1.696198913975421618e+01,3.531871233905577867e+01
1.698199485567305089e+01,3.392589671109568883e+01
1.700200057159188560e+01,3.268316008201687595e+01
1.702200628751071676e+01,2.998268675752912671e+01
1.704201200342955147e+01,2.855717048231586475e+01
1.706201771934838618e+01,2.735084991294607804e+01
1.708202343526722089e+01,2.481194853247024668e+01
1.710202915118605205e+01,2.327985646012720977e+01
1.712203486710488676e+01,2.164560735214533693e+01
1.714204058302372147e+01,1.988649154178813916e+01
1.716204629894255618e+01,1.839457376987640558e+01
1.718205201486139089e+01,1.566193715058436808e+01
1.720205773078022204e+01,1.581414130770650317e+01
1.722206344669905675e+01,1.382822544521633645e+01
1.724206916261789146e+01,1.348843840072471245e+01
1.726207487853672617e+01,1.158762032060261582e+01
1.728208059445555733e+01,1.202208288137107317e+01
1.730208631037439204e+01,1.138787980529588140e+01
1.732209202629322675e+01,1.073278606868900020e+01
1.734209774221206146e+01,9.639468588790380821e+00
1.736210345813089617e+01,1.009714647986878688e+01
1.738210917404973088e+01,1.030923696485342589e+01
1.740211488996856204e+01,9.564226831332140577e+00
1.742212060588739675e+01,9.093467239683974412e+00
1.744212632180623146e+01,9.765119489134221453e+00
1.746213203772506262e+01,9.461662640702080296e+00
1.748213775364389733e+01,1.008922588515422980e+01
1.750214346956273204e+01,1.019156348090227127e+01
1.752214918548156675e+01,9.854120854138166408e+00
1.754215490140040146e+01,9.670359926841125997e+00
1.756216061731923617e+01,1.022187973699923802e+01
1.758216633323806732e+01,1.141284370879159127e+01
1.760217204915690203e+01,1.194005756042389166e+01
1.762217776507573674e+01,1.177205405477910105e+01
1.764218348099457145e+01,1.136958977312117192e+01
1.766218919691340261e+01,1.222814686779186921e+01
1.768219491283223732e+01,1.261796762542724970e+01
1.770220062875107203e+01,1.277064851238385224e+01
1.772220634466990674e+01,1.363268897234318544e+01
1.774221206058874145e+01,1.385673563723740287e+01
1.776221777650757616e+01,1.380952320957181456e+01
1.778222349242640732e+01,1.436311739964946810e+01
1.780222920834524203e+01,1.479463753641870838e+01
1.782223492426407674e+01,1.547582917207110853e+01
1.784224064018290790e+01,1.519809160406050097e+01
1.786224635610174261e+01,1.632978959415834197e+01
1.788225207202057732e+01,1.694839926847177125e+01
1.790225778793941203e+01,1.653305042033653649e+01
1.792226350385824674e+01,1.820246242910232937e+01
1.794226921977708145e+01,1.898715002546858344e+01
1.796227493569591260e+01,1.907014986555248726e+01
