angle,intensity
1.000000000000000000e+01,5.946248669919772567e+01
1.002000571591883471e+01,5.889404440971043186e+01
1.004001143183766764e+01,6.000300994766747920e+01
1.006001714775650235e+01,5.984314469453006069e+01
1.008002286367533529e+01,6.022887583167820935e+01
1.010002857959417000e+01,6.000246525599261815e+01
1.012003429551300293e+01,6.000907250680342031e+01
1.014004001143183764e+01,5.932523607781334363e+01
1.016004572735067235e+01,5.915518417396157247e+01
1.018005144326950528e+01,5.859002909661876402e+01
1.020005715918833999e+01,5.769653954034466636e+01
1.022006287510717293e+01,5.710535790303907788e+01
1.024006859102600764e+01,5.552766529053000966e+01
1.026007430694484057e+01,5.408443989064792845e+01
1.028008002286367528e+01,5.379925714139804427e+01
1.030008573878250999e+01,5.187649131466184116e+01
1.032009145470134293e+01,5.008447929503014251e+01
1.034009717062017764e+01,4.747139326511070578e+01
1.036010288653901057e+01,4.503843324875484200e+01
1.038010860245784528e+01,4.331184108222072382e+01
1.040011431837667999e+01,3.983178551652875399e+01
1.042012003429551292e+01,3.771554565653221402e+01
1.044012575021434763e+01,3.516251288099428507e+01
1.046013146613318057e+01,3.292837534523508225e+01
1.048013718205201528e+01,3.021521632851533212e+01
1.050014289797084821e+01,2.799929958029560595e+01
1.052014861388968292e+01,2.547328269335026718e+01
1.054015432980851585e+01,2.329121988106899011e+01
1.056016004572735056e+01,2.168865272833630797e+01
1.058016576164618527e+01,1.994692138936247616e+01
1.060017147756501821e+01,1.833246931730841212e+01
1.062017719348385292e+01,1.769515546524280936e+01
1.064018290940268585e+01,1.622274596789162260e+01
1.066018862532152056e+01,1.579518147600260569e+01
1.068019434124035527e+01,1.483537299384298791e+01
1.070020005715918820e+01,1.324176977889775841e+01
1.072020577307802292e+01,1.305955720111363760e+01
1.074021148899685585e+01,1.352825557811087265e+01
1.076021720491569056e+01,1.208485366376466885e+01
1.078022292083452349e+01,1.243948212004932685e+01
1.080022863675335820e+01,1.232919581306272860e+01
1.082023435267219291e+01,1.172899042298094585e+01
1.084024006859102585e+01,1.217697607079491462e+01
1.086024578450986056e+01,1.127224298074481013e+01
1.088025150042869349e+01,1.192357171248572634e+01
1.090025721634752820e+01,1.120743959072910734e+01
1.092026293226636113e+01,1.131718711528472454e+01
1.094026864818519584e+01,1.048168000369668462e+01
1.096027436410403055e+01,1.116656052715255498e+01
1.098028008002286349e+01,1.057314246937505686e+01
1.100028579594169820e+01,1.026124035426871650e+01
1.102029151186053113e+01,1.017883462327819899e+01
1.104029722777936584e+01,9.883864254189264287e+00
1.106030294369819877e+01,1.034792624227290503e+01
1.108030865961703348e+01,9.748804682285840073e+00
1.110031437553586819e+01,9.607137513222689051e+00
1.112032009145470113e+01,9.665205979986531304e+00
1.114032580737353584e+01,9.204984908216305328e+00
1.116033152329236877e+01,8.916974221141757084e+00
1.118033723921120348e+01,8.515180097304366313e+00
1.120034295513003642e+01,8.304232072141058296e+00
1.122034867104887113e+01,7.782747227580719240e+00
1.124035438696770584e+01,8.303611294666227494e+00
1.126036010288653877e+01,7.750616029904740856e+00
1.128036581880537348e+01,6.305838737875868460e+00
1.130037153472420641e+01,6.414501885288817817e+00
1.132037725064304112e+01,6.394183043531118216e+00
1.134038296656187583e+01,5.832970717766315261e+00
1.136038868248070877e+01,5.624778627227664529e+00
1.138039439839954348e+01,5.477592309690473726e+00
1.140040011431837641e+01,5.207033777787243523e+00
1.142040583023721112e+01,4.510156322981895727e+00
1.144041154615604405e+01,3.744359793595926966e+00
1.146041726207487876e+01,4.973762517318736087e+00
1.148042297799371170e+01,4.023686110039850661e+00
1.150042869391254641e+01,3.791200420565102647e+00
1.152043440983138112e+01,3.079454612842164707e+00
1.154044012575021405e+01,3.296671219098857186e+00
1.156044584166904876e+01,2.429707101971378513e+00
1.158045155758788169e+01,3.283357704834187096e+00
1.160045727350671640e+01,2.774996751767315750e+00
1.162046298942555111e+01,3.285665326290315491e+00
1.164046870534438405e+01,3.377511748246009304e+00
1.166047442126321876e+01,3.522792279319499897e+00
1.168048013718205169e+01,2.388667298780432713e+00
1.170048585310088640e+01,3.104470817570260444e+00
1.172049156901971934e+01,2.600715822402613675e+00
1.174049728493855405e+01,3.192341912257856684e+00
1.176050300085738698e+01,2.438300262032575105e+00
1.178050871677622169e+01,2.124019445870525935e+00
1.180051443269505640e+01,2.338986289644711114e+00
1.182052014861388933e+01,2.841402234697682161e+00
1.184052586453272404e+01,3.196863375527854156e+00
1.186053158045155698e+01,3.380528572120760522e+00
1.188053729637039169e+01,2.629983884842594044e+00
1.190054301228922640e+01,2.480129556499134580e+00
1.192054872820805933e+01,2.814537000999044025e+00
1.194055444412689404e+01,2.464798335270390162e+00
1.196056016004572697e+01,3.119959180390603937e+00
1.198056587596456168e+01,2.455991313494063633e+00
1.200057159188339639e+01,2.151172865766733722e+00
1.202057730780222933e+01,2.714132507075114997e+00
1.204058302372106226e+01,1.974115797538839256e+00
1.206058873963989697e+01,1.814462132699503405e+00
1.208059445555873168e+01,2.001581781986208064e+00
1.210060017147756461e+01,3.279370308747978413e+00
1.212060588739639932e+01,2.393517183532892112e+00
1.214061160331523226e+01,2.073839466877942517e+00
1.216061731923406697e+01,2.385971085465210528e+00
1.218062303515290168e+01,2.854840348723226118e+00
1.220062875107173461e+01,2.083888806056215071e+00
1.222063446699056932e+01,2.138209630212279055e+00
1.224064018290940226e+01,2.918540680407287979e+00
1.226064589882823697e+01,2.250056526368160892e+00
1.228065161474707168e+01,2.919517395964930540e+00
1.230065733066590461e+01,2.196725183614927079e+00
1.232066304658473754e+01,2.425595620031644195e+00
1.234066876250357225e+01,2.436463908145292123e+00
1.236067447842240696e+01,2.920368297520353096e+00
1.238068019434123990e+01,2.521775014907025714e+00
1.240068591026007461e+01,2.321074950637342482e+00
1.242069162617890754e+01,2.414796071376673847e+00
1.244069734209774225e+01,2.367285496805169309e+00
1.246070305801657696e+01,2.547918874357947949e+00
1.248070877393540989e+01,2.564822118455439615e+00
1.250071448985424460e+01,3.102641176362471498e+00
1.252072020577307754e+01,2.256772166552797110e+00
1.254072592169191225e+01,2.988384018371555761e+00
1.256073163761074696e+01,2.348910487940097269e+00
1.258073735352957989e+01,2.328708324618760539e+00
1.260074306944841460e+01,2.453265836531636879e+00
1.262074878536724754e+01,1.586816062181529485e+00
1.264075450128608225e+01,2.881739764617993860e+00
1.266076021720491518e+01,2.760788040214771311e+00
1.268076593312374989e+01,2.979670367816039445e+00
1.270077164904258282e+01,3.028719841788036771e+00
1.272077736496141753e+01,2.552042637458151297e+00
1.274078308088025224e+01,2.408888283420357102e+00
1.276078879679908518e+01,2.413412592368223031e+00
1.278079451271791989e+01,2.313481140760200727e+00
1.280080022863675282e+01,2.916319587910625177e+00
1.282080594455558753e+01,3.212402780780375444e+00
1.284081166047442224e+01,2.516333041716784624e+00
1.286081737639325517e+01,2.512356512919739604e+00
1.288082309231208988e+01,2.326567232006404140e+00
1.290082880823092282e+01,2.831732721968389654e+00
1.292083452414975753e+01,2.058928320769167541e+00
1.294084024006859224e+01,1.849524436017423668e+00
1.296084595598742517e+01,3.002569062229372587e+00
1.298085167190625810e+01,2.608693359940074341e+00
1.300085738782509281e+01,2.643895933718293456e+00
1.302086310374392752e+01,2.794155422305212966e+00
1.304086881966276046e+01,2.664564618361807469e+00
1.306087453558159517e+01,2.732574355941891575e+00
1.308088025150042810e+01,3.411217612807786459e+00
1.310088596741926281e+01,2.460374502662594942e+00
1.312089168333809752e+01,2.549353706278228771e+00
1.314089739925693046e+01,2.827491974742362579e+00
1.316090311517576517e+01,3.003221385151422673e+00
1.318090883109459810e+01,2.454286976809989529e+00
1.320091454701343281e+01,3.062804886352576084e+00
1.322092026293226752e+01,3.492328359995859000e+00
1.324092597885110045e+01,3.187339155146468705e+00
1.326093169476993339e+01,2.783622900148172263e+00
1.328093741068876810e+01,2.063894421527680656e+00
1.330094312660760281e+01,3.007984221418089632e+00
1.332094884252643574e+01,3.051462276998004874e+00
1.334095455844527045e+01,3.007308657530387563e+00
1.336096027436410338e+01,3.346361718370479910e+00
1.338096599028293809e+01,3.588762447831832070e+00
1.340097170620177280e+01,2.873033500767371962e+00
1.342097742212060574e+01,2.983291254999496545e+00
1.344098313803944045e+01,3.379005832094610362e+00
1.346098885395827338e+01,2.471757087746035531e+00
1.348099456987710809e+01,2.889728490311573417e+00
1.350100028579594280e+01,3.071177152248189657e+00
1.352100600171477573e+01,3.257991121371563548e+00
1.354101171763361044e+01,3.748744090126503004e+00
1.356101743355244338e+01,2.592647311716490766e+00
1.358102314947127809e+01,3.279762440597101758e+00
1.360102886539011102e+01,3.535908091473440429e+00
1.362103458130894573e+01,4.055262753695368261e+00
1.364104029722777867e+01,3.619909925023534925e+00
1.366104601314661338e+01,2.895215945561127491e+00
1.368105172906544809e+01,3.889082354749168857e+00
1.370105744498428102e+01,3.366762936361700209e+00
1.372106316090311573e+01,3.644980727594389514e+00
1.374106887682194866e+01,3.664654347230664300e+00
1.376107459274078337e+01,4.020114524104877241e+00
1.378108030865961808e+01,3.248873750887518064e+00
1.380108602457845102e+01,4.273459344749507061e+00
1.382109174049728573e+01,4.237715817480124159e+00
1.384109745641611866e+01,3.837475221088585187e+00
1.386110317233495337e+01,4.570973992579538070e+00
1.388110888825378808e+01,4.553498436263574867e+00
1.390111460417262101e+01,4.356743967852402477e+00
1.392112032009145395e+01,4.048364501790397085e+00
1.394112603601028866e+01,4.369563210675630138e+00
1.396113175192912337e+01,4.540740024826106058e+00
1.398113746784795630e+01,3.790075142913400086e+00
1.400114318376679101e+01,4.743989063921095095e+00
1.402114889968562395e+01,4.504565852945377813e+00
1.404115461560445866e+01,3.689023626286525026e+00
1.406116033152329337e+01,4.468476694961121432e+00
1.408116604744212630e+01,4.549492725825906803e+00
1.410117176336095923e+01,4.609827511064048089e+00
1.412117747927979394e+01,4.289617369854582307e+00
1.414118319519862865e+01,5.191143475837773025e+00
1.416118891111746336e+01,4.852740537944793431e+00
1.418119462703629630e+01,5.145806048917786590e+00
1.420120034295512923e+01,4.947613607095165733e+00
1.422120605887396394e+01,5.210593895482343640e+00
1.424121177479279865e+01,5.534545780289165329e+00
1.426121749071163336e+01,5.121827274371326233e+00
1.428122320663046629e+01,5.058439528483120284e+00
1.430122892254929923e+01,5.634387352526612602e+00
1.432123463846813394e+01,5.173522539961430411e+00
1.434124035438696865e+01,5.900489258961576056e+00
1.436124607030580158e+01,5.537790824695006719e+00
1.438125178622463629e+01,6.235340877802824977e+00
1.440125750214346922e+01,6.171727864180230227e+00
1.442126321806230393e+01,6.006225726036779733e+00
1.444126893398113864e+01,5.686775733736160632e+00
1.446127464989997158e+01,6.068910501756993092e+00
1.448128036581880451e+01,6.073391725563620724e+00
1.450128608173763922e+01,6.294359391609120280e+00
1.452129179765647393e+01,6.687667675956110891e+00
1.454129751357530864e+01,7.063050870612116228e+00
1.456130322949414158e+01,6.532495782986638133e+00
1.458130894541297451e+01,7.565125332546337233e+00
1.460131466133180922e+01,6.864200934025572742e+00
1.462132037725064393e+01,6.540329850178941307e+00
1.464132609316947686e+01,7.628123719364470645e+00
1.466133180908831157e+01,7.175269391897556304e+00
1.468133752500714451e+01,7.172517128302862588e+00
1.470134324092597922e+01,7.238937010218918111e+00
1.472134895684481393e+01,6.536712551814331640e+00
1.474135467276364686e+01,6.690687424074873491e+00
1.476136038868247979e+01,7.786679727257681094e+00
1.478136610460131450e+01,7.568595147460456474e+00
1.480137182052014921e+01,7.507404907054705312e+00
1.482137753643898392e+01,7.856132759104143659e+00
1.484138325235781686e+01,7.808120585563211868e+00
1.486138896827664979e+01,7.476870098542899079e+00
1.488139468419548450e+01,7.350863138572321986e+00
1.490140040011431921e+01,7.479537742637747399e+00
1.492140611603315392e+01,7.960879100241062822e+00
1.494141183195198685e+01,7.600827909538167226e+00
1.496141754787081979e+01,7.966491120445500229e+00
1.498142326378965450e+01,6.977125965424519904e+00
1.500142897970848921e+01,6.513226071890958480e+00
1.502143469562732214e+01,7.157368129112851918e+00
1.504144041154615508e+01,6.392240338144501877e+00
1.506144612746498979e+01,7.491156168040987495e+00
1.508145184338382450e+01,6.848522683542760170e+00
1.510145755930265921e+01,7.462715027397874401e+00
1.512146327522149214e+01,7.172643200828533239e+00
1.514146899114032507e+01,7.229148109212671258e+00
1.516147470705915978e+01,6.237655012613148031e+00
1.518148042297799449e+01,6.877231215298978739e+00
1.520148613889682920e+01,6.392295737654447585e+00
1.522149185481566214e+01,6.282220803830215416e+00
1.524149757073449507e+01,5.934016143486637418e+00
1.526150328665332978e+01,5.681914272015463396e+00
1.528150900257216449e+01,6.159629609505090642e+00
1.530151471849099742e+01,6.442518435404130273e+00
1.532152043440983036e+01,6.674216944811091068e+00
1.534152615032866507e+01,6.511372486907777812e+00
1.536153186624749978e+01,5.953918741123469971e+00
1.538153758216633449e+01,6.492388599502166180e+00
1.540154329808516742e+01,5.915710881436909929e+00
1.542154901400400036e+01,6.130856102992701118e+00
1.544155472992283507e+01,5.397120448451993013e+00
1.546156044584166978e+01,5.924975707106142409e+00
1.548156616176050449e+01,5.872604335128729147e+00
1.550157187767933742e+01,5.312151888733861682e+00
1.552157759359817035e+01,5.502024937583065878e+00
1.554158330951700506e+01,6.111426012772706251e+00
1.556158902543583977e+01,6.276619730446478584e+00
1.558159474135467271e+01,5.638809777660812372e+00
1.560160045727350742e+01,5.423911183185847307e+00
1.562160617319234035e+01,6.057438505895723857e+00
1.564161188911117506e+01,5.372225774014623312e+00
1.566161760503000977e+01,5.428791675548147566e+00
1.568162332094884270e+01,4.597303446584277253e+00
1.570162903686767564e+01,5.132495447978082659e+00
1.572163475278651035e+01,5.544543454829048201e+00
1.574164046870534506e+01,5.201640238528915106e+00
1.576164618462417977e+01,5.041348061783756052e+00
1.578165190054301270e+01,5.490881436004137583e+00
1.580165761646184563e+01,5.039400318906608334e+00
1.582166333238068034e+01,5.320668304116999536e+00
1.584166904829951505e+01,4.535625857468918554e+00
1.586167476421834799e+01,5.179610521256408973e+00
1.588168048013718270e+01,5.172878058109096955e+00
1.590168619605601563e+01,5.043350041689726559e+00
1.592169191197485034e+01,4.427785586886638924e+00
1.594169762789368505e+01,5.177103283455994465e+00
1.596170334381251799e+01,4.548587832059062919e+00
1.598170905973135092e+01,4.600045013070062971e+00
1.600171477565018563e+01,5.042337028368380381e+00
1.602172049156902034e+01,5.793722424882274069e+00
1.604172620748785505e+01,4.970449702777401946e+00
1.606173192340668976e+01,5.098266451418357548e+00
1.608173763932552092e+01,5.369544058660126851e+00
1.610174335524435563e+01,6.066667362923842788e+00
1.612174907116319034e+01,5.355079461385126471e+00
1.614175478708202505e+01,6.083636765338272134e+00
1.616176050300085620e+01,5.891946455560320928e+00
1.618176621891969091e+01,6.078729919624217715e+00
1.620177193483852562e+01,6.223899421669813137e+00
1.622177765075736033e+01,6.164447783650713220e+00
1.624178336667619504e+01,6.950650606292237299e+00
1.626178908259502620e+01,6.638910007529108981e+00
1.628179479851386091e+01,7.156732552293737726e+00
1.630180051443269562e+01,7.921466660393233994e+00
1.632180623035153033e+01,8.401261136495980608e+00
1.634181194627036149e+01,8.432285332775641962e+00
1.636181766218919620e+01,8.723254063739707576e+00
1.638182337810803091e+01,7.889998614903739771e+00
1.640182909402686562e+01,8.123248786790400189e+00
1.642183480994570033e+01,9.410855632922618952e+00
1.644184052586453504e+01,9.464433190070062452e+00
1.646184624178336620e+01,9.532231049443689486e+00
1.648185195770220091e+01,9.715835826326756575e+00
1.650185767362103562e+01,1.034374472237077924e+01
1.652186338953986677e+01,1.087671941673616871e+01
1.654186910545870148e+01,1.073248372169232567e+01
1.656187482137753619e+01,1.094471180450556957e+01
1.658188053729637090e+01,1.163110477867576975e+01
1.660188625321520561e+01,1.262459200410363636e+01
1.662189196913404032e+01,1.309209903807113662e+01
1.664189768505287148e+01,1.265697917162755104e+01
1.666190340097170619e+01,1.286302952311932302e+01
1.668190911689054090e+01,1.376922247102500663e+01
1.670191483280937561e+01,1.405110286807821396e+01
1.672192054872820677e+01,1.463622714706316685e+01
1.674192626464704148e+01,1.557828273623315063e+01
1.676193198056587619e+01,1.598121538183526980e+01
1.678193769648471090e+01,1.540698864408065205e+01
1.680194341240354561e+01,1.713022471619775189e+01
1.682194912832238032e+01,1.751358544413204044e+01
1.684195484424121148e+01,1.786782614291002602e+01
1.686196056016004619e+01,1.880515101497118025e+01
1.688196627607888090e+01,1.879939384573481931e+01
1.690197199199771205e+01,2.041572816079888497e+01
1.692197770791654676e+01,2.073373013394280662e+01
1.694198342383538147e+01,2.107736269591755729e+01
1.696198913975421618e+01,2.149860281907437454e+01
1.698199485567305089e+01,2.300535459837669805e+01
1.700200057159188560e+01,2.400958728525586139e+01
1.702200628751071676e+01,2.420339396820201472e+01
1.704201200342955147e+01,2.574449768891963330e+01
1.706201771934838618e+01,2.573931327587238727e+01
1.708202343526722089e+01,2.666976123376487351e+01
1.710202915118605205e+01,2.730655115481156514e+01
1.712203486710488676e+01,2.923167905084927654e+01
1.714204058302372147e+01,3.033960539469787676e+01
1.716204629894255618e+01,3.022145786639748621e+01
1.718205201486139089e+01,3.165177472151550830e+01
1.720205773078022204e+01,3.271835262998169469e+01
1.722206344669905675e+01,3.459398631231501753e+01
1.724206916261789146e+01,3.540840394990301121e+01
1.726207487853672617e+01,3.582932390096138420e+01
1.728208059445555733e+01,3.793000294925990090e+01
1.730208631037439204e+01,3.933796788585705428e+01
1.732209202629322675e+01,4.000631057073032792e+01
1.734209774221206146e+01,4.186534158102443826e+01
1.736210345813089617e+01,4.358245478584285593e+01
1.738210917404973088e+01,4.503719368620799912e+01
1.740211488996856204e+01,4.633832196183863061e+01
1.742212060588739675e+01,4.690294482885427385e+01
1.744212632180623146e+01,4.909168042309534741e+01
1.746213203772506262e+01,5.097872316872226861e+01
1.748213775364389733e+01,5.128949685421457616e+01
1.750214346956273204e+01,5.383790012154150872e+01
1.752214918548156675e+01,5.533641138361729617e+01
1.754215490140040146e+01,5.646473771108649942e+01
1.756216061731923617e+01,5.865102814096542261e+01
1.758216633323806732e+01,5.922620140307871139e+01
1.760217204915690203e+01,6.108196403511639971e+01
1.762217776507573674e+01,6.292600704568685188e+01
1.764218348099457145e+01,6.385993836429955195e+01
1.766218919691340261e+01,6.542164031953365111e+01
1.768219491283223732e+01,6.700651218831009714e+01
1.770220062875107203e+01,6.879597258074832666e+01
1.772220634466990674e+01,6.904475377591117535e+01
1.774221206058874145e+01,7.017528359177171637e+01
1.776221777650757616e+01,7.077091913334828632e+01
1.778222349242640732e+01,7.190547215347874044e+01
1.780222920834524203e+01,7.286469919412490981e+01
1.782223492426407674e+01,7.271953750207592293e+01
1.784224064018290790e+01,7.268720732942345819e+01
1.786224635610174261e+01,7.293677094618584533e+01
1.788225207202057732e+01,7.250602902116386872e+01
1.790225778793941203e+01,7.298250596484864161e+01
1.792226350385824674e+01,7.194585923547717243e+01
1.794226921977708145e+01,7.088144981884488516e+01
1.796227493569591260e+01,7.057281196767408460e+01
