angle,intensity
1.000000000000000000e+01,1.000000000000000000e+02
1.002000571591883471e+01,9.555731562646229804e+01
1.004001143183766764e+01,9.121373209326071674e+01
1.006001714775650235e+01,8.740441474875328254e+01
1.008002286367533529e+01,8.214099499239415536e+01
1.010002857959417000e+01,7.647230403710469204e+01
1.012003429551300293e+01,7.099645003212071970e+01
1.014004001143183764e+01,6.560058964893221400e+01
1.016004572735067235e+01,6.085887180272710850e+01
1.018005144326950528e+01,5.448904007610755684e+01
1.020005715918833999e+01,5.045699873105827749e+01
1.022006287510717293e+01,4.503063495453024245e+01
1.024006859102600764e+01,4.068581299201873946e+01
1.026007430694484057e+01,3.640012751804816560e+01
1.028008002286367528e+01,3.278782753541462824e+01
1.030008573878250999e+01,2.961207178954343888e+01
1.032009145470134293e+01,2.592737619362095103e+01
1.034009717062017764e+01,2.415591875849464287e+01
1.036010288653901057e+01,2.228715844093821374e+01
1.038010860245784528e+01,1.890508645667892296e+01
1.040011431837667999e+01,1.769204714109614685e+01
1.042012003429551292e+01,1.694324316066699865e+01
1.044012575021434763e+01,1.571591513902782467e+01
1.046013146613318057e+01,1.366242368695035481e+01
1.048013718205201528e+01,1.363347709492573756e+01
1.050014289797084821e+01,1.229910755429282432e+01
1.052014861388968292e+01,1.192541447447613123e+01
1.054015432980851585e+01,1.135487137499884547e+01
1.056016004572735056e+01,1.105853121536937422e+01
1.058016576164618527e+01,1.047311614787225231e+01
1.060017147756501821e+01,9.610862038312365740e+00
1.062017719348385292e+01,9.805641357601103891e+00
1.064018290940268585e+01,9.672522368098974255e+00
1.066018862532152056e+01,9.107056174166055840e+00
1.068019434124035527e+01,9.195550312357646305e+00
1.070020005715918820e+01,8.618421015604571522e+00
1.072020577307802292e+01,8.409290394529273627e+00
1.074021148899685585e+01,8.106707917374864181e+00
1.076021720491569056e+01,8.170081221649976300e+00
1.078022292083452349e+01,7.269176266646736551e+00
1.080022863675335820e+01,8.255172253212503364e+00
1.082023435267219291e+01,7.978051827626267745e+00
1.084024006859102585e+01,8.191091825578144636e+00
1.086024578450986056e+01,7.533415116829603519e+00
1.088025150042869349e+01,7.334874927739040373e+00
1.090025721634752820e+01,7.935641240917875372e+00
1.092026293226636113e+01,6.385224604289231110e+00
1.094026864818519584e+01,6.827890980758722250e+00
1.096027436410403055e+01,6.833598814718090608e+00
1.098028008002286349e+01,6.761856115916542898e+00
1.100028579594169820e+01,6.869889325823656634e+00
1.102029151186053113e+01,7.193627026837024374e+00
1.104029722777936584e+01,6.668425457261696110e+00
1.106030294369819877e+01,5.825071318181498370e+00
1.108030865961703348e+01,6.894954355136908575e+00
1.110031437553586819e+01,5.730369799347250215e+00
1.112032009145470113e+01,6.362463785840432706e+00
1.114032580737353584e+01,6.571054343753269578e+00
1.116033152329236877e+01,5.855203334959147909e+00
1.118033723921120348e+01,5.833277122488137678e+00
1.120034295513003642e+01,6.137659020353350314e+00
1.122034867104887113e+01,6.647634653440515962e+00
1.124035438696770584e+01,5.714030359216065946e+00
1.126036010288653877e+01,6.468800434171043889e+00
1.128036581880537348e+01,5.765937887444547272e+00
1.130037153472420641e+01,6.148975373847898496e+00
1.132037725064304112e+01,6.455522477418650595e+00
1.134038296656187583e+01,5.285418350606911453e+00
1.136038868248070877e+01,5.965596251039716691e+00
1.138039439839954348e+01,5.449941396992986853e+00
1.140040011431837641e+01,5.741609921014030782e+00
1.142040583023721112e+01,6.235183640367059077e+00
1.144041154615604405e+01,6.416591605256438235e+00
1.146041726207487876e+01,5.824926748596440440e+00
1.148042297799371170e+01,5.357483347363807269e+00
1.150042869391254641e+01,6.176944052460706658e+00
1.152043440983138112e+01,5.329532215074848978e+00
1.154044012575021405e+01,6.524111097079027033e+00
1.156044584166904876e+01,6.885622532653451700e+00
1.158045155758788169e+01,5.643395879414691230e+00
1.160045727350671640e+01,5.966816609553498019e+00
1.162046298942555111e+01,6.841525282910575712e+00
1.164046870534438405e+01,5.830712449137571696e+00
1.166047442126321876e+01,6.542400876687391786e+00
1.168048013718205169e+01,6.481853601016191568e+00
1.170048585310088640e+01,5.326675158683587874e+00
1.172049156901971934e+01,6.585956932907292227e+00
1.174049728493855405e+01,6.312424005592488285e+00
1.176050300085738698e+01,5.490513646474708409e+00
1.178050871677622169e+01,6.632545889295419883e+00
1.180051443269505640e+01,6.544742831855304033e+00
1.182052014861388933e+01,6.489142434131277781e+00
1.184052586453272404e+01,6.191676853868123942e+00
1.186053158045155698e+01,6.096838229366395190e+00
1.188053729637039169e+01,6.895776890973715822e+00
1.190054301228922640e+01,6.395171914611733399e+00
1.192054872820805933e+01,6.767100015844340177e+00
1.194055444412689404e+01,6.563747501142019658e+00
1.196056016004572697e+01,6.478380063853018456e+00
1.198056587596456168e+01,6.723478127189247644e+00
1.200057159188339639e+01,7.374716890833678207e+00
1.202057730780222933e+01,7.028661591067761449e+00
1.204058302372106226e+01,7.095758159689752098e+00
1.206058873963989697e+01,6.816519392120913068e+00
1.208059445555873168e+01,6.099203198960553962e+00
1.210060017147756461e+01,7.761323185852138984e+00
1.212060588739639932e+01,7.134633447288720731e+00
1.214061160331523226e+01,6.627139750885538305e+00
1.216061731923406697e+01,6.939201671999279064e+00
1.218062303515290168e+01,7.185971553730592376e+00
1.220062875107173461e+01,6.890048697275425127e+00
1.222063446699056932e+01,7.547489848380372734e+00
1.224064018290940226e+01,6.928674499973416445e+00
1.226064589882823697e+01,7.975790530484649032e+00
1.228065161474707168e+01,8.302483383568842967e+00
1.230065733066590461e+01,7.296637332987745417e+00
1.232066304658473754e+01,7.537773149166867803e+00
1.234066876250357225e+01,7.975383274591486327e+00
1.236067447842240696e+01,7.661144292413414547e+00
1.238068019434123990e+01,8.292975508516517991e+00
1.240068591026007461e+01,8.127647314373106724e+00
1.242069162617890754e+01,8.442387865627537735e+00
1.244069734209774225e+01,8.201546289862427841e+00
1.246070305801657696e+01,8.232797783388750901e+00
1.248070877393540989e+01,8.378173086602300756e+00
1.250071448985424460e+01,8.883583795529840899e+00
1.252072020577307754e+01,9.007693018591970358e+00
1.254072592169191225e+01,9.263746160939426488e+00
1.256073163761074696e+01,8.933651540155128856e+00
1.258073735352957989e+01,9.001284175542295429e+00
1.260074306944841460e+01,1.011416584492242166e+01
1.262074878536724754e+01,9.440826368345947017e+00
1.264075450128608225e+01,8.882288889055210745e+00
1.266076021720491518e+01,9.161318497486789170e+00
1.268076593312374989e+01,9.939493503962875565e+00
1.270077164904258282e+01,9.890460394456617621e+00
1.272077736496141753e+01,1.015450293577745455e+01
1.274078308088025224e+01,1.080847818292462037e+01
1.276078879679908518e+01,1.026759836532918513e+01
1.278079451271791989e+01,1.098908548840674726e+01
1.280080022863675282e+01,1.066391213637283286e+01
1.282080594455558753e+01,1.095129149374060162e+01
1.284081166047442224e+01,1.138706991232568733e+01
1.286081737639325517e+01,1.142765880467501560e+01
1.288082309231208988e+01,1.141051086207921372e+01
1.290082880823092282e+01,1.102212095753797172e+01
1.292083452414975753e+01,1.179547717305100463e+01
1.294084024006859224e+01,1.134339564261011191e+01
1.296084595598742517e+01,1.322185368933721783e+01
1.298085167190625810e+01,1.244116001143121508e+01
1.300085738782509281e+01,1.331928871658857361e+01
1.302086310374392752e+01,1.355263784061301990e+01
1.304086881966276046e+01,1.375826147177038195e+01
1.306087453558159517e+01,1.360269677832804902e+01
1.308088025150042810e+01,1.412964313773951375e+01
1.310088596741926281e+01,1.387505062466573769e+01
1.312089168333809752e+01,1.437461330564266504e+01
1.314089739925693046e+01,1.469616081890736403e+01
1.316090311517576517e+01,1.456579818931380821e+01
1.318090883109459810e+01,1.511349151703689486e+01
1.320091454701343281e+01,1.492140761243728520e+01
1.322092026293226752e+01,1.597289911859472511e+01
1.324092597885110045e+01,1.580791145513706120e+01
1.326093169476993339e+01,1.600160103510310705e+01
1.328093741068876810e+01,1.623578781178238373e+01
1.330094312660760281e+01,1.733896741901829230e+01
1.332094884252643574e+01,1.740065348717849147e+01
1.334095455844527045e+01,1.731254717732645076e+01
1.336096027436410338e+01,1.713483719681521222e+01
1.338096599028293809e+01,1.722101915379829506e+01
1.340097170620177280e+01,1.765473150266733526e+01
1.342097742212060574e+01,1.727909443654472454e+01
1.344098313803944045e+01,1.854179656740245719e+01
1.346098885395827338e+01,1.878111808925340398e+01
1.348099456987710809e+01,1.821828243437370531e+01
1.350100028579594280e+01,1.781909268322010931e+01
1.352100600171477573e+01,1.864297039014821422e+01
1.354101171763361044e+01,1.856687689755496962e+01
1.356101743355244338e+01,1.852740949891930455e+01
1.358102314947127809e+01,1.807247741354569115e+01
1.360102886539011102e+01,1.861189358131801086e+01
1.362103458130894573e+01,1.831229177651804108e+01
1.364104029722777867e+01,1.761707433409849344e+01
1.366104601314661338e+01,1.769567307496083330e+01
1.368105172906544809e+01,1.870638385847228591e+01
1.370105744498428102e+01,1.752751746088494400e+01
1.372106316090311573e+01,1.726319879392485035e+01
1.374106887682194866e+01,1.757729362665019224e+01
1.376107459274078337e+01,1.806403328620717375e+01
1.378108030865961808e+01,1.831703992624048993e+01
1.380108602457845102e+01,1.733162049832984763e+01
1.382109174049728573e+01,1.768700172369909041e+01
1.384109745641611866e+01,1.814061613194764533e+01
1.386110317233495337e+01,1.897935174560673488e+01
1.388110888825378808e+01,1.858527238331821962e+01
1.390111460417262101e+01,1.786608846599760625e+01
1.392112032009145395e+01,1.893636404384014327e+01
1.394112603601028866e+01,1.960049365709941327e+01
1.396113175192912337e+01,1.952023646186675165e+01
1.398113746784795630e+01,1.967567686916997971e+01
1.400114318376679101e+01,2.057740521481402496e+01
1.402114889968562395e+01,2.009105454253291256e+01
1.404115461560445866e+01,2.052337043052202503e+01
1.406116033152329337e+01,2.050276082776836617e+01
1.408116604744212630e+01,2.163261098925336157e+01
1.410117176336095923e+01,2.255718535218315779e+01
1.412117747927979394e+01,2.288175896419457445e+01
1.414118319519862865e+01,2.350575181757652032e+01
1.416118891111746336e+01,2.310710517286810273e+01
1.418119462703629630e+01,2.464699004518126912e+01
1.420120034295512923e+01,2.447287088707665248e+01
1.422120605887396394e+01,2.481626219855746385e+01
1.424121177479279865e+01,2.442676816692227248e+01
1.426121749071163336e+01,2.577250332551758660e+01
1.428122320663046629e+01,2.611681040105598939e+01
1.430122892254929923e+01,2.636703908122729700e+01
1.432123463846813394e+01,2.735323994088427568e+01
1.434124035438696865e+01,2.784594074940116926e+01
1.436124607030580158e+01,2.811435602102340425e+01
1.438125178622463629e+01,2.850347163102264503e+01
1.440125750214346922e+01,2.867985826869897892e+01
1.442126321806230393e+01,2.926053541160758797e+01
1.444126893398113864e+01,2.958595802273700315e+01
1.446127464989997158e+01,2.940912211379285424e+01
1.448128036581880451e+01,3.014567179267373120e+01
1.450128608173763922e+01,3.106122392029180190e+01
1.452129179765647393e+01,3.104651274392961824e+01
1.454129751357530864e+01,3.067539300666328472e+01
1.456130322949414158e+01,3.180360503566283725e+01
1.458130894541297451e+01,3.245924106800609366e+01
1.460131466133180922e+01,3.305870314688635858e+01
1.462132037725064393e+01,3.324205993063734610e+01
1.464132609316947686e+01,3.264930928508904628e+01
1.466133180908831157e+01,3.394010843235647457e+01
1.468133752500714451e+01,3.432184302804577669e+01
1.470134324092597922e+01,3.447533279092549918e+01
1.472134895684481393e+01,3.358077995513945524e+01
1.474135467276364686e+01,3.406850399476591207e+01
1.476136038868247979e+01,3.440455702109333913e+01
1.478136610460131450e+01,3.385956853872009020e+01
1.480137182052014921e+01,3.391239148346716803e+01
1.482137753643898392e+01,3.442870319963353865e+01
1.484138325235781686e+01,3.360744079418149965e+01
1.486138896827664979e+01,3.402504902621674887e+01
1.488139468419548450e+01,3.319405626828770295e+01
1.490140040011431921e+01,3.350469789949033839e+01
1.492140611603315392e+01,3.408466971646482335e+01
1.494141183195198685e+01,3.313003018898456986e+01
1.496141754787081979e+01,3.379503265199787876e+01
1.498142326378965450e+01,3.460349976173721842e+01
1.500142897970848921e+01,3.338249798566115345e+01
1.502143469562732214e+01,3.475835334768589746e+01
1.504144041154615508e+01,3.507621351634362838e+01
1.506144612746498979e+01,3.462614816425910647e+01
1.508145184338382450e+01,3.521158896876814737e+01
1.510145755930265921e+01,3.527768613985701052e+01
1.512146327522149214e+01,3.660380882933614544e+01
1.514146899114032507e+01,3.787187472353120654e+01
1.516147470705915978e+01,3.802571583636387231e+01
1.518148042297799449e+01,3.982042533991801037e+01
1.520148613889682920e+01,3.990642142265193115e+01
1.522149185481566214e+01,4.103138716568675193e+01
1.524149757073449507e+01,4.212019434589820577e+01
1.526150328665332978e+01,4.307593469569494005e+01
1.528150900257216449e+01,4.356320801530089426e+01
1.530151471849099742e+01,4.597164469079238813e+01
1.532152043440983036e+01,4.637781259932129529e+01
1.534152615032866507e+01,4.749785747526004798e+01
1.536153186624749978e+01,4.905405874059535165e+01
1.538153758216633449e+01,5.027126503784471367e+01
1.540154329808516742e+01,5.141556246349561121e+01
1.542154901400400036e+01,5.239630254224681494e+01
1.544155472992283507e+01,5.429609730354700048e+01
1.546156044584166978e+01,5.539413479667902607e+01
1.548156616176050449e+01,5.630814023410600555e+01
1.550157187767933742e+01,5.764617056033219455e+01
1.552157759359817035e+01,5.885108810585887795e+01
1.554158330951700506e+01,6.085508418410960019e+01
1.556158902543583977e+01,6.104631376579118296e+01
1.558159474135467271e+01,6.233530049867513156e+01
1.560160045727350742e+01,6.296486596053895823e+01
1.562160617319234035e+01,6.364521170469396338e+01
1.564161188911117506e+01,6.488865070302692573e+01
1.566161760503000977e+01,6.572482796900681024e+01
1.568162332094884270e+01,6.558880921753586790e+01
1.570162903686767564e+01,6.585953420659765811e+01
1.572163475278651035e+01,6.657344406189807273e+01
1.574164046870534506e+01,6.551667691603900323e+01
1.576164618462417977e+01,6.619793763211797000e+01
1.578165190054301270e+01,6.587738822644146808e+01
1.580165761646184563e+01,6.439283553211647870e+01
1.582166333238068034e+01,6.439160074791381305e+01
1.584166904829951505e+01,6.288145572778513781e+01
1.586167476421834799e+01,6.246165060017675330e+01
1.588168048013718270e+01,6.242795935750757508e+01
1.590168619605601563e+01,6.153884623010169719e+01
1.592169191197485034e+01,6.059812005930811551e+01
1.594169762789368505e+01,5.981624561371052096e+01
1.596170334381251799e+01,5.974590534458430824e+01
1.598170905973135092e+01,5.855935099350581652e+01
1.600171477565018563e+01,5.803508568966914538e+01
1.602172049156902034e+01,5.862797181116975764e+01
1.604172620748785505e+01,5.861231876501502569e+01
1.606173192340668976e+01,5.895414110042767675e+01
1.608173763932552092e+01,5.887579211835107174e+01
1.610174335524435563e+01,5.938482475699117202e+01
1.612174907116319034e+01,6.047843866182331851e+01
1.614175478708202505e+01,6.131553984720378025e+01
1.616176050300085620e+01,6.114093206177230400e+01
1.618176621891969091e+01,6.339085143903229635e+01
1.620177193483852562e+01,6.409617354475182083e+01
1.622177765075736033e+01,6.521721287792783528e+01
1.624178336667619504e+01,6.568782429218788366e+01
1.626178908259502620e+01,6.656138237122415546e+01
1.628179479851386091e+01,6.783954527934588441e+01
1.630180051443269562e+01,6.886056784510874706e+01
1.632180623035153033e+01,6.992459084839927641e+01
1.634181194627036149e+01,7.039436660258803613e+01
1.636181766218919620e+01,7.124074828909179757e+01
1.638182337810803091e+01,7.112523099519356151e+01
1.640182909402686562e+01,7.146760608005160975e+01
1.642183480994570033e+01,7.099534886313736592e+01
1.644184052586453504e+01,7.159103111622319204e+01
1.646184624178336620e+01,7.070016919150288004e+01
1.648185195770220091e+01,6.997975227200113579e+01
1.650185767362103562e+01,6.945124547742398136e+01
1.652186338953986677e+01,6.884545791755158461e+01
1.654186910545870148e+01,6.660601507320413361e+01
1.656187482137753619e+01,6.521325410264810785e+01
1.658188053729637090e+01,6.214580385744975644e+01
1.660188625321520561e+01,6.066453098968342772e+01
1.662189196913404032e+01,5.848264190702915499e+01
1.664189768505287148e+01,5.561206798953779185e+01
1.666190340097170619e+01,5.289471806616747074e+01
1.668190911689054090e+01,5.089564279518727119e+01
1.670191483280937561e+01,4.806595651420601456e+01
1.672192054872820677e+01,4.573134717743449329e+01
1.674192626464704148e+01,4.307361967295305760e+01
1.676193198056587619e+01,4.117576311213862539e+01
1.678193769648471090e+01,3.764537709455174053e+01
1.680194341240354561e+01,3.694423968324711893e+01
1.682194912832238032e+01,3.379808555339609200e+01
1.684195484424121148e+01,3.354421577625544160e+01
1.686196056016004619e+01,3.150789285568072273e+01
1.688196627607888090e+01,3.093809759046697394e+01
1.690197199199771205e+01,2.871345695813898402e+01
1.692197770791654676e+01,2.817427452004515231e+01
1.694198342383538147e+01,2.796473461458195686e+01
1.696198913975421618e+01,2.680103062150213589e+01
1.698199485567305089e+01,2.703823910892521809e+01
1.700200057159188560e+01,2.591666990438260143e+01
1.702200628751071676e+01,2.509201912009196178e+01
1.704201200342955147e+01,2.530547396573811625e+01
1.706201771934838618e+01,2.363393248237795419e+01
1.708202343526722089e+01,2.295909372247606584e+01
1.710202915118605205e+01,2.390649770893159598e+01
1.712203486710488676e+01,2.322870991740035151e+01
1.714204058302372147e+01,2.268000266774765805e+01
1.716204629894255618e+01,2.150302129419018371e+01
1.718205201486139089e+01,2.121485167622386214e+01
1.720205773078022204e+01,2.012532537720588266e+01
1.722206344669905675e+01,1.986992043553000542e+01
1.724206916261789146e+01,2.014921153422040589e+01
1.726207487853672617e+01,1.935367135106851322e+01
1.728208059445555733e+01,1.890070927516725163e+01
1.730208631037439204e+01,1.827490723079390023e+01
1.732209202629322675e+01,1.807783706498499043e+01
1.734209774221206146e+01,1.737204422626077616e+01
1.736210345813089617e+01,1.699601025971813684e+01
1.738210917404973088e+01,1.636171898787722156e+01
1.740211488996856204e+01,1.707198310989520351e+01
1.742212060588739675e+01,1.722141300658454099e+01
1.744212632180623146e+01,1.758305366429101468e+01
1.746213203772506262e+01,1.659772144668152194e+01
1.748213775364389733e+01,1.716884842385194432e+01
1.750214346956273204e+01,1.738759194891898119e+01
1.752214918548156675e+01,1.770807666545140791e+01
1.754215490140040146e+01,1.765148647530342885e+01
1.756216061731923617e+01,1.797197263260235900e+01
1.758216633323806732e+01,1.792353259047558112e+01
1.760217204915690203e+01,1.904277371533177643e+01
1.762217776507573674e+01,1.937646988625484212e+01
1.764218348099457145e+01,1.976574323042165204e+01
1.766218919691340261e+01,1.962189347738388534e+01
1.768219491283223732e+01,2.057230522107561299e+01
1.770220062875107203e+01,2.044412428293711770e+01
1.772220634466990674e+01,2.004059888087098784e+01
1.774221206058874145e+01,2.086389117232553048e+01
1.776221777650757616e+01,2.141786823286962615e+01
1.778222349242640732e+01,2.115504253672692414e+01
1.780222920834524203e+01,2.290984887148846383e+01
1.782223492426407674e+01,2.209903258092955269e+01
1.784224064018290790e+01,2.210198698827112906e+01
1.786224635610174261e+01,2.373221219498893220e+01
1.788225207202057732e+01,2.315560876533051982e+01
1.790225778793941203e+01,2.247189955477828249e+01
1.792226350385824674e+01,2.355646409374703154e+01
1.794226921977708145e+01,2.394150522601400866e+01
1.796227493569591260e+01,2.354472342580456967e+01
