angle,intensity
1.000000000000000000e+01,9.565209988406165564e+01
1.002000571591883471e+01,9.607848768772666403e+01
1.004001143183766764e+01,9.629576932788958743e+01
1.006001714775650235e+01,9.713369938148522920e+01
1.008002286367533529e+01,9.710385819196690704e+01
1.010002857959417000e+01,9.702595039408217303e+01
1.012003429551300293e+01,9.813734248975772800e+01
1.014004001143183764e+01,9.774394766136938983e+01
1.016004572735067235e+01,9.640935084524087983e+01
1.018005144326950528e+01,9.746743185982407454e+01
1.020005715918833999e+01,9.565059653200503931e+01
1.022006287510717293e+01,9.577236572979845164e+01
1.024006859102600764e+01,9.507647990141094851e+01
1.026007430694484057e+01,9.381578603021975482e+01
1.028008002286367528e+01,9.228964966087438881e+01
1.030008573878250999e+01,9.045687093318338157e+01
1.032009145470134293e+01,8.894255584184531926e+01
1.034009717062017764e+01,8.710409707292876647e+01
1.036010288653901057e+01,8.532127879394806769e+01
1.038010860245784528e+01,8.114242397267824458e+01
1.040011431837667999e+01,7.881034809362947158e+01
1.042012003429551292e+01,7.605587152996523059e+01
1.044012575021434763e+01,7.212851635358325098e+01
1.046013146613318057e+01,6.855570070548061778e+01
1.048013718205201528e+01,6.474910019971066788e+01
1.050014289797084821e+01,6.081273840324418245e+01
1.052014861388968292e+01,5.632507776622405515e+01
1.054015432980851585e+01,5.213206177914395312e+01
1.056016004572735056e+01,4.760531199037679784e+01
1.058016576164618527e+01,4.327314693141561008e+01
1.060017147756501821e+01,3.906651521896966983e+01
1.062017719348385292e+01,3.575837945753011127e+01
1.064018290940268585e+01,3.224313565114019298e+01
1.066018862532152056e+01,2.944412403044990256e+01
1.068019434124035527e+01,2.653743080714813729e+01
1.070020005715918820e+01,2.499501873096168580e+01
1.072020577307802292e+01,2.280650083139807194e+01
1.074021148899685585e+01,2.073422062480548789e+01
1.076021720491569056e+01,1.912255765768441051e+01
1.078022292083452349e+01,1.730346987398415592e+01
1.080022863675335820e+01,1.614582387961439025e+01
1.082023435267219291e+01,1.571256778869438975e+01
1.084024006859102585e+01,1.437278005192622743e+01
1.086024578450986056e+01,1.411197511622351186e+01
1.088025150042869349e+01,1.236962259713284595e+01
1.090025721634752820e+01,1.256379869362435286e+01
1.092026293226636113e+01,1.140534959044444463e+01
1.094026864818519584e+01,1.125069701016727564e+01
1.096027436410403055e+01,1.105053054415520464e+01
1.098028008002286349e+01,1.035023904995992439e+01
1.100028579594169820e+01,1.034917301068002615e+01
1.102029151186053113e+01,9.890443816951304257e+00
1.104029722777936584e+01,9.935952020125329298e+00
1.106030294369819877e+01,9.525381273297496065e+00
1.108030865961703348e+01,8.956620002112058998e+00
1.110031437553586819e+01,8.878477871946426347e+00
1.112032009145470113e+01,7.824994973720357017e+00
1.114032580737353584e+01,8.377249020596689633e+00
1.116033152329236877e+01,8.152276901764739847e+00
1.118033723921120348e+01,8.031656946032176947e+00
1.120034295513003642e+01,7.422423954155439318e+00
1.122034867104887113e+01,7.481732373083901599e+00
1.124035438696770584e+01,8.201496672140731192e+00
1.126036010288653877e+01,6.672725426901560120e+00
1.128036581880537348e+01,6.785625935144961041e+00
1.130037153472420641e+01,6.438114763892223813e+00
1.132037725064304112e+01,7.315223922126644851e+00
1.134038296656187583e+01,7.086301743896600946e+00
1.136038868248070877e+01,6.281007260052261287e+00
1.138039439839954348e+01,6.573917368223242796e+00
1.140040011431837641e+01,6.190656348576371926e+00
1.142040583023721112e+01,6.629855687829874000e+00
1.144041154615604405e+01,6.409492361662890048e+00
1.146041726207487876e+01,6.765203825505992086e+00
1.148042297799371170e+01,6.637457434572066717e+00
1.150042869391254641e+01,5.574741949045731282e+00
1.152043440983138112e+01,5.442412212092996526e+00
1.154044012575021405e+01,6.212890177358778132e+00
1.156044584166904876e+01,5.272135384225538068e+00
1.158045155758788169e+01,5.914729505483858674e+00
1.160045727350671640e+01,5.677134872953331524e+00
1.162046298942555111e+01,5.620000546070424541e+00
1.164046870534438405e+01,5.672564393103850300e+00
1.166047442126321876e+01,6.121350475825813930e+00
1.168048013718205169e+01,4.985091072074419927e+00
1.170048585310088640e+01,5.507414703588397131e+00
1.172049156901971934e+01,5.230394074953182759e+00
1.174049728493855405e+01,4.840474958334564981e+00
1.176050300085738698e+01,5.491070224967749880e+00
1.178050871677622169e+01,5.171529946334435301e+00
1.180051443269505640e+01,5.093663509669266176e+00
1.182052014861388933e+01,5.630783410978544623e+00
1.184052586453272404e+01,5.643858068484497004e+00
1.186053158045155698e+01,4.572713116459726557e+00
1.188053729637039169e+01,4.463184700594360343e+00
1.190054301228922640e+01,5.257973633462677654e+00
1.192054872820805933e+01,5.561238064315861429e+00
1.194055444412689404e+01,4.588145181880181056e+00
1.196056016004572697e+01,4.942107164644324868e+00
1.198056587596456168e+01,4.903927668658687011e+00
1.200057159188339639e+01,5.409659926152956544e+00
1.202057730780222933e+01,4.782055051014836522e+00
1.204058302372106226e+01,4.791096117162020107e+00
1.206058873963989697e+01,5.113253785381813188e+00
1.208059445555873168e+01,4.912370336333466092e+00
1.210060017147756461e+01,5.433443909231871594e+00
1.212060588739639932e+01,4.884703127958351487e+00
1.214061160331523226e+01,5.066572979575468594e+00
1.216061731923406697e+01,4.362763510363946828e+00
1.218062303515290168e+01,4.680580954513866132e+00
1.220062875107173461e+01,5.079666208643603298e+00
1.222063446699056932e+01,5.141634741827883381e+00
1.224064018290940226e+01,4.439550608599937220e+00
1.226064589882823697e+01,4.151579520230933795e+00
1.228065161474707168e+01,4.075689231790621037e+00
1.230065733066590461e+01,4.280115627236538600e+00
1.232066304658473754e+01,4.676646822042359375e+00
1.234066876250357225e+01,4.517396140266080273e+00
1.236067447842240696e+01,4.362036662192098291e+00
1.238068019434123990e+01,4.575931539375586610e+00
1.240068591026007461e+01,4.420762494610255722e+00
1.242069162617890754e+01,4.729479743530464297e+00
1.244069734209774225e+01,4.877722809713035623e+00
1.246070305801657696e+01,4.538755399720209915e+00
1.248070877393540989e+01,4.356572224960805428e+00
1.250071448985424460e+01,4.501869887552721217e+00
1.252072020577307754e+01,4.336023475280359030e+00
1.254072592169191225e+01,3.917920858828016328e+00
1.256073163761074696e+01,3.873099441954435118e+00
1.258073735352957989e+01,4.744227788548896818e+00
1.260074306944841460e+01,4.280363634366015191e+00
1.262074878536724754e+01,3.737465452442544134e+00
1.264075450128608225e+01,4.437936852959558642e+00
1.266076021720491518e+01,4.638710960349992085e+00
1.268076593312374989e+01,4.366995075948904237e+00
1.270077164904258282e+01,4.235570594425661639e+00
1.272077736496141753e+01,3.978219292022070253e+00
1.274078308088025224e+01,3.619826000813741285e+00
1.276078879679908518e+01,3.921326939143275236e+00
1.278079451271791989e+01,4.598190457932457953e+00
1.280080022863675282e+01,3.963266356499475229e+00
1.282080594455558753e+01,3.738443823549217893e+00
1.284081166047442224e+01,3.952107721122207540e+00
1.286081737639325517e+01,3.870079004643860898e+00
1.288082309231208988e+01,3.893501639849020535e+00
1.290082880823092282e+01,3.451528257067633554e+00
1.292083452414975753e+01,4.479164614758459173e+00
1.294084024006859224e+01,4.578295202855623636e+00
1.296084595598742517e+01,4.446441136069825717e+00
1.298085167190625810e+01,4.397324711423675758e+00
1.300085738782509281e+01,3.922841662787015959e+00
1.302086310374392752e+01,4.196814442007759993e+00
1.304086881966276046e+01,3.665174480064601781e+00
1.306087453558159517e+01,4.191997312379386997e+00
1.308088025150042810e+01,4.182673200122614787e+00
1.310088596741926281e+01,4.097997249990710245e+00
1.312089168333809752e+01,3.763740804325005129e+00
1.314089739925693046e+01,4.501067710660797694e+00
1.316090311517576517e+01,3.801435159418189436e+00
1.318090883109459810e+01,4.685015783104373277e+00
1.320091454701343281e+01,4.054298596983427316e+00
1.322092026293226752e+01,4.302986646353952338e+00
1.324092597885110045e+01,3.143979292724353058e+00
1.326093169476993339e+01,3.328665284967366134e+00
1.328093741068876810e+01,4.062675008512541375e+00
1.330094312660760281e+01,4.063591835258083762e+00
1.332094884252643574e+01,3.785535202594027648e+00
1.334095455844527045e+01,3.357371771462951404e+00
1.336096027436410338e+01,3.868499185842568799e+00
1.338096599028293809e+01,3.229762259205446462e+00
1.340097170620177280e+01,3.109623728578385204e+00
1.342097742212060574e+01,3.947201424488137711e+00
1.344098313803944045e+01,4.076808110926059214e+00
1.346098885395827338e+01,4.083531321472277043e+00
1.348099456987710809e+01,4.171510296445484656e+00
1.350100028579594280e+01,3.589513965821303554e+00
1.352100600171477573e+01,3.200164224810931213e+00
1.354101171763361044e+01,4.663806016987487979e+00
1.356101743355244338e+01,3.800119598550480760e+00
1.358102314947127809e+01,4.364104565265312985e+00
1.360102886539011102e+01,3.252967064448246681e+00
1.362103458130894573e+01,4.387499414597888503e+00
1.364104029722777867e+01,3.903825894193354351e+00
1.366104601314661338e+01,4.041234171463997882e+00
1.368105172906544809e+01,3.826167407902493434e+00
1.370105744498428102e+01,4.637618450004211468e+00
1.372106316090311573e+01,3.403181017020739052e+00
1.374106887682194866e+01,4.100522456278927308e+00
1.376107459274078337e+01,3.601096271515044300e+00
1.378108030865961808e+01,4.208117029977099577e+00
1.380108602457845102e+01,3.230584626132583903e+00
1.382109174049728573e+01,3.908121499246606234e+00
1.384109745641611866e+01,4.136843990561246187e+00
1.386110317233495337e+01,4.192389191950644189e+00
1.388110888825378808e+01,3.337538703256111461e+00
1.390111460417262101e+01,3.682287301934224377e+00
1.392112032009145395e+01,4.406175298998183720e+00
1.394112603601028866e+01,3.944804366157674380e+00
1.396113175192912337e+01,4.079687848692527652e+00
1.398113746784795630e+01,4.217169310059381893e+00
1.400114318376679101e+01,3.921224494655640047e+00
1.402114889968562395e+01,3.175870133351444302e+00
1.404115461560445866e+01,3.406702159047286127e+00
1.406116033152329337e+01,3.806063630489392224e+00
1.408116604744212630e+01,4.084754386635761847e+00
1.410117176336095923e+01,4.346101639130059979e+00
1.412117747927979394e+01,3.371631392157826035e+00
1.414118319519862865e+01,3.706376278983543049e+00
1.416118891111746336e+01,3.648143285257755775e+00
1.418119462703629630e+01,4.167954242045889046e+00
1.420120034295512923e+01,4.490493765649498314e+00
1.422120605887396394e+01,4.757168187096739942e+00
1.424121177479279865e+01,4.375761936600987667e+00
1.426121749071163336e+01,3.957185149168015226e+00
1.428122320663046629e+01,3.899699155668076678e+00
1.430122892254929923e+01,3.927994377693032391e+00
1.432123463846813394e+01,3.768779874465998603e+00
1.434124035438696865e+01,4.605832426797654477e+00
1.436124607030580158e+01,3.855524635194098604e+00
1.438125178622463629e+01,3.999491266992646565e+00
1.440125750214346922e+01,3.975045923262652714e+00
1.442126321806230393e+01,4.573458799667871055e+00
1.444126893398113864e+01,3.924768850014885402e+00
1.446127464989997158e+01,3.124148707432105709e+00
1.448128036581880451e+01,4.075623390533667845e+00
1.450128608173763922e+01,4.689918424208430636e+00
1.452129179765647393e+01,3.810151690228514632e+00
1.454129751357530864e+01,4.353229214100570843e+00
1.456130322949414158e+01,3.939775280106803557e+00
1.458130894541297451e+01,4.328356592293582494e+00
1.460131466133180922e+01,4.355178029103598192e+00
1.462132037725064393e+01,3.204725092430509292e+00
1.464132609316947686e+01,4.010482699766772186e+00
1.466133180908831157e+01,3.983461803103903520e+00
1.468133752500714451e+01,3.612671430471539935e+00
1.470134324092597922e+01,4.261596009705904464e+00
1.472134895684481393e+01,3.488780771931160984e+00
1.474135467276364686e+01,4.062736320011854474e+00
1.476136038868247979e+01,3.019441621466478765e+00
1.478136610460131450e+01,3.427280375757377762e+00
1.480137182052014921e+01,4.595910114098654020e+00
1.482137753643898392e+01,4.022116479348582629e+00
1.484138325235781686e+01,3.518726324807068373e+00
1.486138896827664979e+01,4.074951275249922844e+00
1.488139468419548450e+01,3.437412385853513275e+00
1.490140040011431921e+01,3.616922682779873721e+00
1.492140611603315392e+01,3.063339302473679471e+00
1.494141183195198685e+01,3.441949061127557830e+00
1.496141754787081979e+01,3.591693714162197182e+00
1.498142326378965450e+01,3.914527424427160618e+00
1.500142897970848921e+01,3.706601026100162066e+00
1.502143469562732214e+01,3.544126502792962263e+00
1.504144041154615508e+01,3.663557320015835561e+00
1.506144612746498979e+01,3.616967650923119670e+00
1.508145184338382450e+01,3.782461602822743352e+00
1.510145755930265921e+01,4.734362549844270518e+00
1.512146327522149214e+01,3.916796615987100161e+00
1.514146899114032507e+01,4.852655299125894217e+00
1.516147470705915978e+01,4.600838000403113526e+00
1.518148042297799449e+01,3.974568846461066229e+00
1.520148613889682920e+01,4.157493913449580525e+00
1.522149185481566214e+01,3.606256710521241970e+00
1.524149757073449507e+01,4.304402034856579462e+00
1.526150328665332978e+01,4.516855754838864812e+00
1.528150900257216449e+01,4.034121520108842951e+00
1.530151471849099742e+01,3.895335199199651210e+00
1.532152043440983036e+01,4.324705642775539260e+00
1.534152615032866507e+01,4.695181372763358674e+00
1.536153186624749978e+01,3.108921242061158718e+00
1.538153758216633449e+01,3.777770676616173162e+00
1.540154329808516742e+01,3.693714011131357111e+00
1.542154901400400036e+01,3.632000139386419413e+00
1.544155472992283507e+01,4.123735748806359069e+00
1.546156044584166978e+01,4.559297311385696716e+00
1.548156616176050449e+01,3.248751718959560719e+00
1.550157187767933742e+01,4.185172369356871869e+00
1.552157759359817035e+01,4.322984387539958284e+00
1.554158330951700506e+01,4.398986638531424909e+00
1.556158902543583977e+01,3.946719436536151093e+00
1.558159474135467271e+01,4.263363212978756422e+00
1.560160045727350742e+01,3.849019294558583049e+00
1.562160617319234035e+01,4.321171658119062897e+00
1.564161188911117506e+01,3.895280412744789089e+00
1.566161760503000977e+01,3.562226195528349848e+00
1.568162332094884270e+01,4.299536479719242799e+00
1.570162903686767564e+01,4.985496698677951422e+00
1.572163475278651035e+01,4.921806388695281420e+00
1.574164046870534506e+01,4.682711738215367347e+00
1.576164618462417977e+01,4.386155455905448086e+00
1.578165190054301270e+01,4.137511515539674889e+00
1.580165761646184563e+01,4.530413399700554677e+00
1.582166333238068034e+01,4.497454322617892686e+00
1.584166904829951505e+01,3.873882522475661006e+00
1.586167476421834799e+01,4.306083635854177416e+00
1.588168048013718270e+01,4.498450951546667298e+00
1.590168619605601563e+01,4.113916743424435474e+00
1.592169191197485034e+01,4.527052176948564544e+00
1.594169762789368505e+01,5.621106665128718483e+00
1.596170334381251799e+01,5.664288927325790368e+00
1.598170905973135092e+01,5.497930109394235210e+00
1.600171477565018563e+01,4.602080736442651698e+00
1.602172049156902034e+01,5.705275338301659893e+00
1.604172620748785505e+01,5.321146069218511521e+00
1.606173192340668976e+01,5.572204422715773653e+00
1.608173763932552092e+01,4.924128761615165217e+00
1.610174335524435563e+01,5.509541512137826835e+00
1.612174907116319034e+01,5.444344935225722715e+00
1.614175478708202505e+01,5.517170858443801507e+00
1.616176050300085620e+01,5.623559382699548692e+00
1.618176621891969091e+01,5.851200861370481121e+00
1.620177193483852562e+01,6.235314519031165403e+00
1.622177765075736033e+01,5.913653938953092215e+00
1.624178336667619504e+01,6.759318214247295842e+00
1.626178908259502620e+01,6.602034682767575546e+00
1.628179479851386091e+01,5.711535512171029616e+00
1.630180051443269562e+01,6.583109490364210004e+00
1.632180623035153033e+01,6.568010446100120525e+00
1.634181194627036149e+01,7.049594211790394027e+00
1.636181766218919620e+01,7.302463917071753130e+00
1.638182337810803091e+01,7.292919731112883497e+00
1.640182909402686562e+01,7.596946061891683755e+00
1.642183480994570033e+01,7.572135916072289419e+00
1.644184052586453504e+01,7.702027277054571464e+00
1.646184624178336620e+01,7.878200255869545643e+00
1.648185195770220091e+01,7.657794620200907509e+00
1.650185767362103562e+01,8.149861225145075494e+00
1.652186338953986677e+01,8.990085466371979805e+00
1.654186910545870148e+01,8.076519942431474419e+00
1.656187482137753619e+01,9.392331848526673355e+00
1.658188053729637090e+01,8.909191668496653449e+00
1.660188625321520561e+01,8.679846046236713519e+00
1.662189196913404032e+01,9.448740675238115116e+00
1.664189768505287148e+01,9.723362976381906719e+00
1.666190340097170619e+01,9.969297436967339721e+00
1.668190911689054090e+01,1.070249381011219292e+01
1.670191483280937561e+01,1.066163573313939850e+01
1.672192054872820677e+01,1.071505851445020951e+01
1.674192626464704148e+01,1.071121713934196862e+01
1.676193198056587619e+01,1.101567831847832224e+01
1.678193769648471090e+01,1.188870852839503556e+01
1.680194341240354561e+01,1.120428973158925245e+01
1.682194912832238032e+01,1.195541396749539231e+01
1.684195484424121148e+01,1.203978583007393866e+01
1.686196056016004619e+01,1.227386557935054334e+01
1.688196627607888090e+01,1.304496315528473005e+01
1.690197199199771205e+01,1.256841520690947611e+01
1.692197770791654676e+01,1.342270293118939506e+01
1.694198342383538147e+01,1.354902720204198374e+01
1.696198913975421618e+01,1.419361136843368243e+01
1.698199485567305089e+01,1.369663435210847169e+01
1.700200057159188560e+01,1.446221174707172352e+01
1.702200628751071676e+01,1.537353510753661467e+01
1.704201200342955147e+01,1.573298444403021890e+01
1.706201771934838618e+01,1.587546672694538152e+01
1.708202343526722089e+01,1.608150763209000189e+01
1.710202915118605205e+01,1.620995949344625942e+01
1.712203486710488676e+01,1.681220002493736487e+01
1.714204058302372147e+01,1.739040955126324306e+01
1.716204629894255618e+01,1.765614540114193431e+01
1.718205201486139089e+01,1.887577713189823214e+01
1.720205773078022204e+01,1.876004948049747156e+01
1.722206344669905675e+01,1.873620328493964493e+01
1.724206916261789146e+01,1.894352148358363053e+01
1.726207487853672617e+01,1.883408072823920065e+01
1.728208059445555733e+01,1.978694632948707621e+01
1.730208631037439204e+01,2.062013521763305590e+01
1.732209202629322675e+01,2.111546938548339369e+01
1.734209774221206146e+01,2.175149372585161700e+01
1.736210345813089617e+01,2.189697136865881077e+01
1.738210917404973088e+01,2.237489699473501759e+01
1.740211488996856204e+01,2.252667521085753322e+01
1.742212060588739675e+01,2.212685198560865985e+01
1.744212632180623146e+01,2.193609179490351835e+01
1.746213203772506262e+01,2.251733382229780744e+01
1.748213775364389733e+01,2.254570043172899574e+01
1.750214346956273204e+01,2.256614764352019620e+01
1.752214918548156675e+01,2.179399431459643921e+01
1.754215490140040146e+01,2.136698704972837959e+01
1.756216061731923617e+01,2.162012003342212907e+01
1.758216633323806732e+01,2.065118386946785733e+01
1.760217204915690203e+01,2.125363037054249915e+01
1.762217776507573674e+01,2.036286105258464829e+01
1.764218348099457145e+01,1.998052023689739087e+01
1.766218919691340261e+01,1.901233565986582619e+01
1.768219491283223732e+01,1.818698250871702626e+01
1.770220062875107203e+01,1.730240952329836901e+01
1.772220634466990674e+01,1.630130902967047390e+01
1.774221206058874145e+01,1.531097580661790580e+01
1.776221777650757616e+01,1.573793256123876105e+01
1.778222349242640732e+01,1.423687467996671074e+01
1.780222920834524203e+01,1.315889881614587154e+01
1.782223492426407674e+01,1.274342777847296126e+01
1.784224064018290790e+01,1.212015807166756254e+01
1.786224635610174261e+01,1.148801858360093853e+01
1.788225207202057732e+01,1.069965801865909327e+01
1.790225778793941203e+01,9.573597025596443544e+00
1.792226350385824674e+01,1.023982785503323178e+01
1.794226921977708145e+01,8.954861062255117687e+00
1.796227493569591260e+01,9.286579264224089414e+00
