angle,intensity
1.000000000000000000e+01,8.739826542230841255e+01
1.002000571591883471e+01,8.900434733270236620e+01
1.004001143183766764e+01,9.021695070674944361e+01
1.006001714775650235e+01,9.164614247847305251e+01
1.008002286367533529e+01,9.381720842383884928e+01
1.010002857959417000e+01,9.395745172863581729e+01
1.012003429551300293e+01,9.498909692816023664e+01
1.014004001143183764e+01,9.667280882067802850e+01
1.016004572735067235e+01,9.742740575181971963e+01
1.018005144326950528e+01,9.843848143059395284e+01
1.020005715918833999e+01,9.823072315397638476e+01
1.022006287510717293e+01,9.918991410673358189e+01
1.024006859102600764e+01,9.938722721908149538e+01
1.026007430694484057e+01,9.971419455684984712e+01
1.028008002286367528e+01,9.946453021969489328e+01
1.030008573878250999e+01,9.894194178719162380e+01
1.032009145470134293e+01,9.928740388169526909e+01
1.034009717062017764e+01,9.806519911337571216e+01
1.036010288653901057e+01,9.783054824113568770e+01
1.038010860245784528e+01,9.568979195122878423e+01
1.040011431837667999e+01,9.348628302931382450e+01
1.042012003429551292e+01,9.251428929339263618e+01
1.044012575021434763e+01,8.891869655443178999e+01
1.046013146613318057e+01,8.637479521860304033e+01
1.048013718205201528e+01,8.316567446573711209e+01
1.050014289797084821e+01,7.846500650477759109e+01
1.052014861388968292e+01,7.457956256366648518e+01
1.054015432980851585e+01,6.944559630124400940e+01
1.056016004572735056e+01,6.488188375814077347e+01
1.058016576164618527e+01,5.949286500161385050e+01
1.060017147756501821e+01,5.387398339437160644e+01
1.062017719348385292e+01,4.862435351647494031e+01
1.064018290940268585e+01,4.430491960948863550e+01
1.066018862532152056e+01,3.944812248635808061e+01
1.068019434124035527e+01,3.412316097382280589e+01
1.070020005715918820e+01,2.971923526640875934e+01
1.072020577307802292e+01,2.581258268670746503e+01
1.074021148899685585e+01,2.252941314678497164e+01
1.076021720491569056e+01,2.036657783431172675e+01
1.078022292083452349e+01,1.810603405366227392e+01
1.080022863675335820e+01,1.585594267913394972e+01
1.082023435267219291e+01,1.430267163903411998e+01
1.084024006859102585e+01,1.221763165208653312e+01
1.086024578450986056e+01,1.237095750197632427e+01
1.088025150042869349e+01,1.090255479571836261e+01
1.090025721634752820e+01,1.036823728634281494e+01
1.092026293226636113e+01,9.251487881002962155e+00
1.094026864818519584e+01,9.138423137670006469e+00
1.096027436410403055e+01,8.779124581706803099e+00
1.098028008002286349e+01,8.711838277954964127e+00
1.100028579594169820e+01,7.990950294171225821e+00
1.102029151186053113e+01,6.953903932443918023e+00
1.104029722777936584e+01,7.763718751496885950e+00
1.106030294369819877e+01,7.297802585536006248e+00
1.108030865961703348e+01,7.028515998677756116e+00
1.110031437553586819e+01,7.428534303873258970e+00
1.112032009145470113e+01,6.796363217601963491e+00
1.114032580737353584e+01,7.253473056396190444e+00
1.116033152329236877e+01,6.440343892582406582e+00
1.118033723921120348e+01,5.773160136119695807e+00
1.120034295513003642e+01,7.084537938028455883e+00
1.122034867104887113e+01,6.944511590621232244e+00
1.124035438696770584e+01,6.021237549590631843e+00
1.126036010288653877e+01,6.338346770000109487e+00
1.128036581880537348e+01,6.408989573144268093e+00
1.130037153472420641e+01,6.150512341096851188e+00
1.132037725064304112e+01,6.058992894769287929e+00
1.134038296656187583e+01,6.169076032001213683e+00
1.136038868248070877e+01,6.119723855554363823e+00
1.138039439839954348e+01,5.501789684092554644e+00
1.140040011431837641e+01,5.447451080690274949e+00
1.142040583023721112e+01,5.417532792090801408e+00
1.144041154615604405e+01,5.466510458829249686e+00
1.146041726207487876e+01,5.986368388820848097e+00
1.148042297799371170e+01,5.636762114816094460e+00
1.150042869391254641e+01,5.019128920168586028e+00
1.152043440983138112e+01,4.866884953999285557e+00
1.154044012575021405e+01,5.019454517330408372e+00
1.156044584166904876e+01,4.851010299879636278e+00
1.158045155758788169e+01,4.534952873202366064e+00
1.160045727350671640e+01,3.478318776743265950e+00
1.162046298942555111e+01,4.034759280251997815e+00
1.164046870534438405e+01,3.362782503485508556e+00
1.166047442126321876e+01,3.808024192581921596e+00
1.168048013718205169e+01,2.690797140767355877e+00
1.170048585310088640e+01,2.845163010280278737e+00
1.172049156901971934e+01,3.509328020933858649e+00
1.174049728493855405e+01,2.766937486216709541e+00
1.176050300085738698e+01,3.807707353950159579e+00
1.178050871677622169e+01,3.143565514806041516e+00
1.180051443269505640e+01,2.530096478543677918e+00
1.182052014861388933e+01,2.364858942014498311e+00
1.184052586453272404e+01,2.352507860526583450e+00
1.186053158045155698e+01,2.428692717643219368e+00
1.188053729637039169e+01,2.710868400549221846e+00
1.190054301228922640e+01,2.558237602835684577e+00
1.192054872820805933e+01,2.870999491642351131e+00
1.194055444412689404e+01,3.328106238578842468e+00
1.196056016004572697e+01,2.121090539367960215e+00
1.198056587596456168e+01,2.509242681502759531e+00
1.200057159188339639e+01,3.536368043343253831e+00
1.202057730780222933e+01,2.381648168290604772e+00
1.204058302372106226e+01,2.380273465307046976e+00
1.206058873963989697e+01,3.086215249511750081e+00
1.208059445555873168e+01,2.345076868172741413e+00
1.210060017147756461e+01,2.088034290879219768e+00
1.212060588739639932e+01,2.528146262505105213e+00
1.214061160331523226e+01,2.587577888259676051e+00
1.216061731923406697e+01,2.362287930923548274e+00
1.218062303515290168e+01,3.034136587735154045e+00
1.220062875107173461e+01,2.530928558601387657e+00
1.222063446699056932e+01,2.855290204266670351e+00
1.224064018290940226e+01,2.927292135635137349e+00
1.226064589882823697e+01,2.431424666467553397e+00
1.228065161474707168e+01,3.034068576627428016e+00
1.230065733066590461e+01,2.610035854890655038e+00
1.232066304658473754e+01,2.931623507652151517e+00
1.234066876250357225e+01,2.948432572574053001e+00
1.236067447842240696e+01,1.801539001838882825e+00
1.238068019434123990e+01,1.733467384046285975e+00
1.240068591026007461e+01,2.884128688038229527e+00
1.242069162617890754e+01,2.455105985842937599e+00
1.244069734209774225e+01,2.514734588236462898e+00
1.246070305801657696e+01,2.504093074900132443e+00
1.248070877393540989e+01,2.540744124601944876e+00
1.250071448985424460e+01,3.219651188722687074e+00
1.252072020577307754e+01,3.012777733762797894e+00
1.254072592169191225e+01,3.217995817189435392e+00
1.256073163761074696e+01,2.568502746276605464e+00
1.258073735352957989e+01,2.200185749206943431e+00
1.260074306944841460e+01,2.367496432623930946e+00
1.262074878536724754e+01,2.060289656089250965e+00
1.264075450128608225e+01,2.389156083429695432e+00
1.266076021720491518e+01,2.397431913748897081e+00
1.268076593312374989e+01,2.492705368144263911e+00
1.270077164904258282e+01,1.579033589945928462e+00
1.272077736496141753e+01,2.766468464073938538e+00
1.274078308088025224e+01,2.476836097157072203e+00
1.276078879679908518e+01,2.082200564675328991e+00
1.278079451271791989e+01,2.406661312814443843e+00
1.280080022863675282e+01,2.171246778736004579e+00
1.282080594455558753e+01,2.845048192503882856e+00
1.284081166047442224e+01,2.720965050471802371e+00
1.286081737639325517e+01,1.979874535092070342e+00
1.288082309231208988e+01,2.072175220638337922e+00
1.290082880823092282e+01,2.189042714396054912e+00
1.292083452414975753e+01,2.185762562186757130e+00
1.294084024006859224e+01,2.480670593356095299e+00
1.296084595598742517e+01,2.698076319318641225e+00
1.298085167190625810e+01,2.307571423518128384e+00
1.300085738782509281e+01,1.757419543185634758e+00
1.302086310374392752e+01,2.894989318324287186e+00
1.304086881966276046e+01,2.257280824345203385e+00
1.306087453558159517e+01,2.753542843563864473e+00
1.308088025150042810e+01,2.678929525304475145e+00
1.310088596741926281e+01,1.889680270488168556e+00
1.312089168333809752e+01,2.909659908883333479e+00
1.314089739925693046e+01,2.069564915216941525e+00
1.316090311517576517e+01,1.909535967081520624e+00
1.318090883109459810e+01,2.354728689879718395e+00
1.320091454701343281e+01,3.038310169906716318e+00
1.322092026293226752e+01,2.631142665846399442e+00
1.324092597885110045e+01,2.577228957639281948e+00
1.326093169476993339e+01,2.781554011739136634e+00
1.328093741068876810e+01,2.735690233463329069e+00
1.330094312660760281e+01,2.237157415362490021e+00
1.332094884252643574e+01,3.061517546415652991e+00
1.334095455844527045e+01,2.294156853870333634e+00
1.336096027436410338e+01,2.783726928293183356e+00
1.338096599028293809e+01,1.895668146735769000e+00
1.340097170620177280e+01,3.001458388959399315e+00
1.342097742212060574e+01,2.911187895567965978e+00
1.344098313803944045e+01,2.610577821749554772e+00
1.346098885395827338e+01,2.159271476639763154e+00
1.348099456987710809e+01,3.136470047338780542e+00
1.350100028579594280e+01,2.780089803646014879e+00
1.352100600171477573e+01,2.264258869401773566e+00
1.354101171763361044e+01,2.925675861696324986e+00
1.356101743355244338e+01,2.602534285977423867e+00
1.358102314947127809e+01,1.789458599874798050e+00
1.360102886539011102e+01,2.319417263679511176e+00
1.362103458130894573e+01,2.176002318660702262e+00
1.364104029722777867e+01,2.519088689341387521e+00
1.366104601314661338e+01,2.517504721667361611e+00
1.368105172906544809e+01,2.217036767338520065e+00
1.370105744498428102e+01,1.912777944066868407e+00
1.372106316090311573e+01,2.275327582204749621e+00
1.374106887682194866e+01,2.673643660339987793e+00
1.376107459274078337e+01,2.297028033331040664e+00
1.378108030865961808e+01,2.803980294843547938e+00
1.380108602457845102e+01,2.643621502668842993e+00
1.382109174049728573e+01,2.446051245573945820e+00
1.384109745641611866e+01,2.715102524685286678e+00
1.386110317233495337e+01,2.036767212547179184e+00
1.388110888825378808e+01,3.243448034709191408e+00
1.390111460417262101e+01,2.429447220456180112e+00
1.392112032009145395e+01,2.364766028501947837e+00
1.394112603601028866e+01,3.215149755562467071e+00
1.396113175192912337e+01,2.597894722154260982e+00
1.398113746784795630e+01,2.271830242672438160e+00
1.400114318376679101e+01,2.268591991247028261e+00
1.402114889968562395e+01,2.041583273735948723e+00
1.404115461560445866e+01,2.726683075136965950e+00
1.406116033152329337e+01,2.526780254311745466e+00
1.408116604744212630e+01,2.682474675806834963e+00
1.410117176336095923e+01,2.795478597670105536e+00
1.412117747927979394e+01,3.157454316106677261e+00
1.414118319519862865e+01,2.563189577123671459e+00
1.416118891111746336e+01,1.931283394058463054e+00
1.418119462703629630e+01,1.896151595560230163e+00
1.420120034295512923e+01,3.203185405638067973e+00
1.422120605887396394e+01,3.547826022189567219e+00
1.424121177479279865e+01,2.744700830421071380e+00
1.426121749071163336e+01,2.481207101727552988e+00
1.428122320663046629e+01,3.414352481330474198e+00
1.430122892254929923e+01,2.381681813120676061e+00
1.432123463846813394e+01,2.308248742659915642e+00
1.434124035438696865e+01,3.642367951877174548e+00
1.436124607030580158e+01,2.206539005922550700e+00
1.438125178622463629e+01,2.855486143790349818e+00
1.440125750214346922e+01,3.351284354607396487e+00
1.442126321806230393e+01,2.752606542497233910e+00
1.444126893398113864e+01,2.774229128473898243e+00
1.446127464989997158e+01,3.110750356063547883e+00
1.448128036581880451e+01,2.512406484211992197e+00
1.450128608173763922e+01,2.483758505909232639e+00
1.452129179765647393e+01,3.300696877742263169e+00
1.454129751357530864e+01,2.849068230670416035e+00
1.456130322949414158e+01,3.566243587095285328e+00
1.458130894541297451e+01,2.893488632744800171e+00
1.460131466133180922e+01,3.481856883662400648e+00
1.462132037725064393e+01,3.083647435594757624e+00
1.464132609316947686e+01,3.103826179641225202e+00
1.466133180908831157e+01,3.347323199896290014e+00
1.468133752500714451e+01,2.454607033057734089e+00
1.470134324092597922e+01,2.527626471907259642e+00
1.472134895684481393e+01,2.882636087337708819e+00
1.474135467276364686e+01,3.570302177481270434e+00
1.476136038868247979e+01,3.001247006217378388e+00
1.478136610460131450e+01,3.344120125716419256e+00
1.480137182052014921e+01,2.847028183787978506e+00
1.482137753643898392e+01,2.312428263551870700e+00
1.484138325235781686e+01,2.949752124555884425e+00
1.486138896827664979e+01,3.477750486142554998e+00
1.488139468419548450e+01,3.577821718690852748e+00
1.490140040011431921e+01,2.149838594424093419e+00
1.492140611603315392e+01,3.252621388473272201e+00
1.494141183195198685e+01,2.497598801540825697e+00
1.496141754787081979e+01,3.687032033021284683e+00
1.498142326378965450e+01,2.932218367626025390e+00
1.500142897970848921e+01,3.140669828193240587e+00
1.502143469562732214e+01,3.047245249169143300e+00
1.504144041154615508e+01,3.089644884200396291e+00
1.506144612746498979e+01,2.241275934285255733e+00
1.508145184338382450e+01,3.462687224438047551e+00
1.510145755930265921e+01,2.838929015129314060e+00
1.512146327522149214e+01,2.836926443605388926e+00
1.514146899114032507e+01,3.015180589747089357e+00
1.516147470705915978e+01,2.613676789962946501e+00
1.518148042297799449e+01,3.201150489158541390e+00
1.520148613889682920e+01,2.578015292751881127e+00
1.522149185481566214e+01,3.688608564601644879e+00
1.524149757073449507e+01,3.508446913900827635e+00
1.526150328665332978e+01,2.297991133527601093e+00
1.528150900257216449e+01,2.989065797871590213e+00
1.530151471849099742e+01,3.842919090232752133e+00
1.532152043440983036e+01,2.670686849157008602e+00
1.534152615032866507e+01,3.056244830215410602e+00
1.536153186624749978e+01,3.815306921319788991e+00
1.538153758216633449e+01,3.252225285264499277e+00
1.540154329808516742e+01,3.758240689799680290e+00
1.542154901400400036e+01,2.767700712448830203e+00
1.544155472992283507e+01,2.880444550052725372e+00
1.546156044584166978e+01,3.442707060179055922e+00
1.548156616176050449e+01,4.274486341170928405e+00
1.550157187767933742e+01,3.349086251026635264e+00
1.552157759359817035e+01,3.146251711855005961e+00
1.554158330951700506e+01,3.505890024644659153e+00
1.556158902543583977e+01,3.501994323862192893e+00
1.558159474135467271e+01,3.284206802542895431e+00
1.560160045727350742e+01,3.363158219290521167e+00
1.562160617319234035e+01,3.063297075821770576e+00
1.564161188911117506e+01,3.429734163224512411e+00
1.566161760503000977e+01,3.542251366275868563e+00
1.568162332094884270e+01,3.363245399416911141e+00
1.570162903686767564e+01,3.363973785013542717e+00
1.572163475278651035e+01,3.793990605085971080e+00
1.574164046870534506e+01,4.032677952102374341e+00
1.576164618462417977e+01,4.709188592595344502e+00
1.578165190054301270e+01,4.129224254865514254e+00
1.580165761646184563e+01,4.088880696842352336e+00
1.582166333238068034e+01,4.498423406298635463e+00
1.584166904829951505e+01,3.938953252277239248e+00
1.586167476421834799e+01,4.976704856230282914e+00
1.588168048013718270e+01,5.163755279342991500e+00
1.590168619605601563e+01,4.686273227996781365e+00
1.592169191197485034e+01,4.948164078784911268e+00
1.594169762789368505e+01,5.162261793805187793e+00
1.596170334381251799e+01,5.666247511948483861e+00
1.598170905973135092e+01,5.833606860928664872e+00
1.600171477565018563e+01,5.711079594040947782e+00
1.602172049156902034e+01,6.901525292437057146e+00
1.604172620748785505e+01,6.560651093820482060e+00
1.606173192340668976e+01,6.515761800396839831e+00
1.608173763932552092e+01,6.457266817152254035e+00
1.610174335524435563e+01,7.025133911542768672e+00
1.612174907116319034e+01,7.526042476163704364e+00
1.614175478708202505e+01,7.500694669419880611e+00
1.616176050300085620e+01,7.850682128076693189e+00
1.618176621891969091e+01,8.266116884007290722e+00
1.620177193483852562e+01,9.193502347622604987e+00
1.622177765075736033e+01,8.913452740177525868e+00
1.624178336667619504e+01,8.670046410715452012e+00
1.626178908259502620e+01,9.363630049557379209e+00
1.628179479851386091e+01,1.010293939147286579e+01
1.630180051443269562e+01,9.992527499900699439e+00
1.632180623035153033e+01,1.003322958408036314e+01
1.634181194627036149e+01,1.179385749460418253e+01
1.636181766218919620e+01,1.130844628326536494e+01
1.638182337810803091e+01,1.230372809569172077e+01
1.640182909402686562e+01,1.264713873770616459e+01
1.642183480994570033e+01,1.209689231284676048e+01
1.644184052586453504e+01,1.377141786585149674e+01
1.646184624178336620e+01,1.415451667287498871e+01
1.648185195770220091e+01,1.425472732944621335e+01
1.650185767362103562e+01,1.424718083503886490e+01
1.652186338953986677e+01,1.553951013658736890e+01
1.654186910545870148e+01,1.581239850091348842e+01
1.656187482137753619e+01,1.607332790461297378e+01
1.658188053729637090e+01,1.739172585498705459e+01
1.660188625321520561e+01,1.764516755339992216e+01
1.662189196913404032e+01,1.812802401113283324e+01
1.664189768505287148e+01,1.901782211602237993e+01
1.666190340097170619e+01,1.910792921696194568e+01
1.668190911689054090e+01,2.030613829892669386e+01
1.670191483280937561e+01,2.093600452923143962e+01
1.672192054872820677e+01,2.102423082934612708e+01
1.674192626464704148e+01,2.302711795260819727e+01
1.676193198056587619e+01,2.330775900292481140e+01
1.678193769648471090e+01,2.387504604721746659e+01
1.680194341240354561e+01,2.432207815524565575e+01
1.682194912832238032e+01,2.563596988690433776e+01
1.684195484424121148e+01,2.666338606495627417e+01
1.686196056016004619e+01,2.720570249112600081e+01
1.688196627607888090e+01,2.871102058139607749e+01
1.690197199199771205e+01,2.942577325125848375e+01
1.692197770791654676e+01,3.014884019189369724e+01
1.694198342383538147e+01,3.158090770297707195e+01
1.696198913975421618e+01,3.176931231395173683e+01
1.698199485567305089e+01,3.335215607113404701e+01
1.700200057159188560e+01,3.460030948603505152e+01
1.702200628751071676e+01,3.530628899865088499e+01
1.704201200342955147e+01,3.621372085229871374e+01
1.706201771934838618e+01,3.768946109654867627e+01
1.708202343526722089e+01,3.892510913339658885e+01
1.710202915118605205e+01,4.027225558391707239e+01
1.712203486710488676e+01,4.058320111088855242e+01
1.714204058302372147e+01,4.279022771338396325e+01
1.716204629894255618e+01,4.415779790630708135e+01
1.718205201486139089e+01,4.482783594488982715e+01
1.720205773078022204e+01,4.727893307120315569e+01
1.722206344669905675e+01,4.851976325489637532e+01
1.724206916261789146e+01,4.993102376738430337e+01
1.726207487853672617e+01,5.058691868029029592e+01
1.728208059445555733e+01,5.302110652352187969e+01
1.730208631037439204e+01,5.402299652907545635e+01
1.732209202629322675e+01,5.494019031742317338e+01
1.734209774221206146e+01,5.714513377611646661e+01
1.736210345813089617e+01,5.802953558407724444e+01
1.738210917404973088e+01,5.884965590693871462e+01
1.740211488996856204e+01,5.997537461755605648e+01
1.742212060588739675e+01,6.071108314139671336e+01
1.744212632180623146e+01,6.225315875818807854e+01
1.746213203772506262e+01,6.207383160337001726e+01
1.748213775364389733e+01,6.211424984428237650e+01
1.750214346956273204e+01,6.242730035681034906e+01
1.752214918548156675e+01,6.104679410583352706e+01
1.754215490140040146e+01,5.981167453548633972e+01
1.756216061731923617e+01,5.899513177920037776e+01
1.758216633323806732e+01,5.785788549449313223e+01
1.760217204915690203e+01,5.604915596899711261e+01
1.762217776507573674e+01,5.283766080799442477e+01
1.764218348099457145e+01,5.014284840573482427e+01
1.766218919691340261e+01,4.718083025432053290e+01
1.768219491283223732e+01,4.392097678591308352e+01
1.770220062875107203e+01,4.052555621172064093e+01
1.772220634466990674e+01,3.723781347334436020e+01
1.774221206058874145e+01,3.367178514060582728e+01
1.776221777650757616e+01,2.991222650913555370e+01
1.778222349242640732e+01,2.681443444688116173e+01
1.780222920834524203e+01,2.527022949566757859e+01
1.782223492426407674e+01,2.189549620042012990e+01
1.784224064018290790e+01,1.980582821118106196e+01
1.786224635610174261e+01,1.806044574733233077e+01
1.788225207202057732e+01,1.650799842204600409e+01
1.790225778793941203e+01,1.401838629085730048e+01
1.792226350385824674e+01,1.329902771651672566e+01
1.794226921977708145e+01,1.303763621452928945e+01
1.796227493569591260e+01,1.208328288434687536e+01
