angle,intensity
1.000000000000000000e+01,8.193088722029315818e+01
1.002000571591883471e+01,8.193864752167158372e+01
1.004001143183766764e+01,8.197843726033720202e+01
1.006001714775650235e+01,8.298765759263683606e+01
1.008002286367533529e+01,8.111047479206267496e+01
1.010002857959417000e+01,8.046494314542971438e+01
1.012003429551300293e+01,7.953616582345688357e+01
1.014004001143183764e+01,7.707126088615262915e+01
1.016004572735067235e+01,7.513168013040039739e+01
1.018005144326950528e+01,7.294439853452843181e+01
1.020005715918833999e+01,6.989906283737713011e+01
1.022006287510717293e+01,6.737581111774839826e+01
1.024006859102600764e+01,6.347730466875219690e+01
1.026007430694484057e+01,5.940512421187939651e+01
1.028008002286367528e+01,5.449852407741640548e+01
1.030008573878250999e+01,5.039192687201407495e+01
1.032009145470134293e+01,4.561407141949530342e+01
1.034009717062017764e+01,4.054627025207783930e+01
1.036010288653901057e+01,3.523703058982471248e+01
1.038010860245784528e+01,3.090377281209693550e+01
1.040011431837667999e+01,2.703419687191901133e+01
1.042012003429551292e+01,2.248605728690979788e+01
1.044012575021434763e+01,1.943111480920670786e+01
1.046013146613318057e+01,1.619183546772808668e+01
1.048013718205201528e+01,1.414540333422859320e+01
1.050014289797084821e+01,1.144431651379814774e+01
1.052014861388968292e+01,9.518413653813512454e+00
1.054015432980851585e+01,9.150049635531420478e+00
1.056016004572735056e+01,6.773601169149524814e+00
1.058016576164618527e+01,5.788803876452033315e+00
1.060017147756501821e+01,5.586344855582074054e+00
1.062017719348385292e+01,5.863200610987397532e+00
1.064018290940268585e+01,4.126222949581506150e+00
1.066018862532152056e+01,4.880445155206824204e+00
1.068019434124035527e+01,4.631709291561508124e+00
1.070020005715918820e+01,3.780322707320868503e+00
1.072020577307802292e+01,4.407314556966229091e+00
1.074021148899685585e+01,2.803961434111386986e+00
1.076021720491569056e+01,4.077868147102408081e+00
1.078022292083452349e+01,3.962709261022594021e+00
1.080022863675335820e+01,2.396001385447558807e+00
1.082023435267219291e+01,2.407261858552418587e+00
1.084024006859102585e+01,2.135149612949473141e+00
1.086024578450986056e+01,2.810605108631344162e+00
1.088025150042869349e+01,3.380027450632810293e+00
1.090025721634752820e+01,3.093864830357388129e+00
1.092026293226636113e+01,2.790543878436636760e+00
1.094026864818519584e+01,3.501909285090226920e+00
1.096027436410403055e+01,2.044984440846875806e+00
1.098028008002286349e+01,2.731686062073240162e+00
1.100028579594169820e+01,2.275670732589621270e+00
1.102029151186053113e+01,2.461644130541605691e+00
1.104029722777936584e+01,2.374508576092680290e+00
1.106030294369819877e+01,3.079117501155275605e+00
1.108030865961703348e+01,2.076503885850708553e+00
1.110031437553586819e+01,1.893719926977580403e+00
1.112032009145470113e+01,3.014504897787664728e+00
1.114032580737353584e+01,1.581804737656836490e+00
1.116033152329236877e+01,2.110119338916601528e+00
1.118033723921120348e+01,1.616321406356101109e+00
1.120034295513003642e+01,1.428405525398359188e+00
1.122034867104887113e+01,1.555216239381592702e+00
1.124035438696770584e+01,2.332286843448649005e+00
1.126036010288653877e+01,2.364312568473593057e+00
1.128036581880537348e+01,2.625421549038736924e+00
1.130037153472420641e+01,1.584982547614374404e+00
1.132037725064304112e+01,1.492826270758375928e+00
1.134038296656187583e+01,2.195402350418426796e+00
1.136038868248070877e+01,2.941207831677114193e+00
1.138039439839954348e+01,1.983604601247275889e+00
1.140040011431837641e+01,1.467646544260634789e+00
1.142040583023721112e+01,2.766055771813547004e+00
1.144041154615604405e+01,1.380995284689276348e+00
1.146041726207487876e+01,2.634928524886030132e+00
1.148042297799371170e+01,2.752956805684602326e+00
1.150042869391254641e+01,2.864704854989436722e+00
1.152043440983138112e+01,2.035344506383074403e+00
1.154044012575021405e+01,1.069384797766535611e+00
1.156044584166904876e+01,2.002481012557129958e+00
1.158045155758788169e+01,2.626827290287451877e+00
1.160045727350671640e+01,1.676755233182348537e+00
1.162046298942555111e+01,2.658884786257182498e+00
1.164046870534438405e+01,2.172103500793185482e+00
1.166047442126321876e+01,2.006630650434815699e+00
1.168048013718205169e+01,2.615109270602559821e+00
1.170048585310088640e+01,2.512191116683632153e+00
1.172049156901971934e+01,2.406886740284100767e+00
1.174049728493855405e+01,1.299542386430064145e+00
1.176050300085738698e+01,1.568161185130062307e+00
1.178050871677622169e+01,2.060749301237672526e+00
1.180051443269505640e+01,2.461705030649037784e+00
1.182052014861388933e+01,2.444912756837759105e+00
1.184052586453272404e+01,2.211786684041866735e+00
1.186053158045155698e+01,2.088653914027779113e+00
1.188053729637039169e+01,1.840798282632208904e+00
1.190054301228922640e+01,2.861163552008995747e+00
1.192054872820805933e+01,1.739571222412334972e+00
1.194055444412689404e+01,2.031323433374794263e+00
1.196056016004572697e+01,1.477095433314934425e+00
1.198056587596456168e+01,1.687346783388236071e+00
1.200057159188339639e+01,1.531451069493903638e+00
1.202057730780222933e+01,9.843462741959382312e-01
1.204058302372106226e+01,2.596003518992118675e+00
1.206058873963989697e+01,1.149179544847991785e+00
1.208059445555873168e+01,1.746448202282922191e+00
1.210060017147756461e+01,2.018360542156209192e+00
1.212060588739639932e+01,2.413231606676013996e+00
1.214061160331523226e+01,1.593355965318346668e+00
1.216061731923406697e+01,2.406213539133537083e+00
1.218062303515290168e+01,2.744250189646872951e+00
1.220062875107173461e+01,1.461365923563177294e+00
1.222063446699056932e+01,1.458406209226980277e+00
1.224064018290940226e+01,2.393021281940626910e+00
1.226064589882823697e+01,2.152023838949223222e+00
1.228065161474707168e+01,1.334174469823379949e+00
1.230065733066590461e+01,2.533448668704074258e+00
1.232066304658473754e+01,1.469872748162395215e+00
1.234066876250357225e+01,1.589879235392120727e+00
1.236067447842240696e+01,2.672814824940141332e+00
1.238068019434123990e+01,2.005411826546572129e+00
1.240068591026007461e+01,2.307119429495197327e+00
1.242069162617890754e+01,1.780351005961346988e+00
1.244069734209774225e+01,1.686783073511263886e+00
1.246070305801657696e+01,2.848545439286804370e+00
1.248070877393540989e+01,2.076175566804454142e+00
1.250071448985424460e+01,2.063105339563933605e+00
1.252072020577307754e+01,1.574834484518813804e+00
1.254072592169191225e+01,1.322228977146347351e+00
1.256073163761074696e+01,1.120407845186391471e+00
1.258073735352957989e+01,1.329797012072601925e+00
1.260074306944841460e+01,2.045352720855028839e+00
1.262074878536724754e+01,1.498331015144094946e+00
1.264075450128608225e+01,1.580657877569935588e+00
1.266076021720491518e+01,2.865488213058988265e+00
1.268076593312374989e+01,2.876018663444870782e+00
1.270077164904258282e+01,1.621988520927470034e+00
1.272077736496141753e+01,1.739515266623077094e+00
1.274078308088025224e+01,1.234431504236799038e+00
1.276078879679908518e+01,2.058523656445329308e+00
1.278079451271791989e+01,2.650880622111936535e+00
1.280080022863675282e+01,1.759018006514106780e+00
1.282080594455558753e+01,1.978556291868145411e+00
1.284081166047442224e+01,2.284983293283009420e+00
1.286081737639325517e+01,2.338023626681951406e+00
1.288082309231208988e+01,2.218523171605320865e+00
1.290082880823092282e+01,2.505232635646238659e+00
1.292083452414975753e+01,1.540431925062054397e+00
1.294084024006859224e+01,2.698150082007376938e+00
1.296084595598742517e+01,2.554459089531058158e+00
1.298085167190625810e+01,1.233709193740754273e+00
1.300085738782509281e+01,1.962455358589975773e+00
1.302086310374392752e+01,1.227622904947787141e+00
1.304086881966276046e+01,2.623145285319310904e+00
1.306087453558159517e+01,2.819381431526566395e+00
1.308088025150042810e+01,1.596924608158250658e+00
1.310088596741926281e+01,1.852066802574220183e+00
1.312089168333809752e+01,2.768223665836185177e+00
1.314089739925693046e+01,2.165349548863993334e+00
1.316090311517576517e+01,1.273739412215679989e+00
1.318090883109459810e+01,2.148294289466908591e+00
1.320091454701343281e+01,1.776602150174361183e+00
1.322092026293226752e+01,1.764540861493618662e+00
1.324092597885110045e+01,1.924364452695340288e+00
1.326093169476993339e+01,2.612148137172790374e+00
1.328093741068876810e+01,1.570586523620443486e+00
1.330094312660760281e+01,1.479571784054359851e+00
1.332094884252643574e+01,1.310184392561265287e+00
1.334095455844527045e+01,1.443848230918800546e+00
1.336096027436410338e+01,2.593994448098320138e+00
1.338096599028293809e+01,1.425685845514189420e+00
1.340097170620177280e+01,1.834184321661384454e+00
1.342097742212060574e+01,1.734850876853678558e+00
1.344098313803944045e+01,2.632009355010874518e+00
1.346098885395827338e+01,2.232091048801998934e+00
1.348099456987710809e+01,2.114404694713007515e+00
1.350100028579594280e+01,2.193158075573938603e+00
1.352100600171477573e+01,2.949230996307555142e+00
1.354101171763361044e+01,2.258229949445000440e+00
1.356101743355244338e+01,2.118350404759084871e+00
1.358102314947127809e+01,2.135840273494174824e+00
1.360102886539011102e+01,3.123561360938416520e+00
1.362103458130894573e+01,1.872007200441605512e+00
1.364104029722777867e+01,3.001953184154114496e+00
1.366104601314661338e+01,2.274699233590268044e+00
1.368105172906544809e+01,2.735466057634998283e+00
1.370105744498428102e+01,1.828816492595399579e+00
1.372106316090311573e+01,2.416029989702620728e+00
1.374106887682194866e+01,2.941682342687188978e+00
1.376107459274078337e+01,2.658821486385942734e+00
1.378108030865961808e+01,2.878012917571386886e+00
1.380108602457845102e+01,2.107438294231549047e+00
1.382109174049728573e+01,2.416715026714911119e+00
1.384109745641611866e+01,2.115750496199619413e+00
1.386110317233495337e+01,2.539829796263305184e+00
1.388110888825378808e+01,2.340959021172969390e+00
1.390111460417262101e+01,2.340612403567241540e+00
1.392112032009145395e+01,2.511798365236228125e+00
1.394112603601028866e+01,2.886982201515350344e+00
1.396113175192912337e+01,3.069666189968532244e+00
1.398113746784795630e+01,3.206391565807226840e+00
1.400114318376679101e+01,3.042643008603320709e+00
1.402114889968562395e+01,3.151246725689581751e+00
1.404115461560445866e+01,1.907639277319339799e+00
1.406116033152329337e+01,1.462305377460265676e+00
1.408116604744212630e+01,1.782210665576947406e+00
1.410117176336095923e+01,1.867248278011089724e+00
1.412117747927979394e+01,1.976338650240357042e+00
1.414118319519862865e+01,3.116380829276619746e+00
1.416118891111746336e+01,2.748031270975618945e+00
1.418119462703629630e+01,1.663582711790016821e+00
1.420120034295512923e+01,2.389817889237846771e+00
1.422120605887396394e+01,2.895434020161030020e+00
1.424121177479279865e+01,2.210223060452177091e+00
1.426121749071163336e+01,1.860333861154810808e+00
1.428122320663046629e+01,2.847626404412492374e+00
1.430122892254929923e+01,2.045243874579592447e+00
1.432123463846813394e+01,2.911296181649510206e+00
1.434124035438696865e+01,2.446141999205901030e+00
1.436124607030580158e+01,1.540509928392809202e+00
1.438125178622463629e+01,1.908153056366045375e+00
1.440125750214346922e+01,2.043321637039424044e+00
1.442126321806230393e+01,2.130997150037163390e+00
1.444126893398113864e+01,3.123130552208675859e+00
1.446127464989997158e+01,3.246933173120163385e+00
1.448128036581880451e+01,1.729724680959583871e+00
1.450128608173763922e+01,2.432153969987365549e+00
1.452129179765647393e+01,1.741971079463066285e+00
1.454129751357530864e+01,2.101208541199056423e+00
1.456130322949414158e+01,1.615565127807611079e+00
1.458130894541297451e+01,1.618199142789082501e+00
1.460131466133180922e+01,3.268748161676678698e+00
1.462132037725064393e+01,1.908665336959115333e+00
1.464132609316947686e+01,3.357803874068473693e+00
1.466133180908831157e+01,2.264385172396854884e+00
1.468133752500714451e+01,2.973151028577706967e+00
1.470134324092597922e+01,1.556659514218807328e+00
1.472134895684481393e+01,3.399901829173359591e+00
1.474135467276364686e+01,3.043654342164466620e+00
1.476136038868247979e+01,3.236204352569831411e+00
1.478136610460131450e+01,1.761205230840738878e+00
1.480137182052014921e+01,1.910358095890763774e+00
1.482137753643898392e+01,2.390325787307613581e+00
1.484138325235781686e+01,2.523610791673118747e+00
1.486138896827664979e+01,2.748842895975210698e+00
1.488139468419548450e+01,2.696713007106115612e+00
1.490140040011431921e+01,2.268624136241816913e+00
1.492140611603315392e+01,2.473973626114041924e+00
1.494141183195198685e+01,2.627147654001640298e+00
1.496141754787081979e+01,2.280257280603407821e+00
1.498142326378965450e+01,2.087285512120594877e+00
1.500142897970848921e+01,2.236220876129440871e+00
1.502143469562732214e+01,3.497934051452397775e+00
1.504144041154615508e+01,2.110296224933929210e+00
1.506144612746498979e+01,1.668091235624049817e+00
1.508145184338382450e+01,3.124624511688913309e+00
1.510145755930265921e+01,3.047507073640447484e+00
1.512146327522149214e+01,2.702740626001046031e+00
1.514146899114032507e+01,2.814411425679404388e+00
1.516147470705915978e+01,1.676689360055738875e+00
1.518148042297799449e+01,2.296524222459620290e+00
1.520148613889682920e+01,3.402164604695039340e+00
1.522149185481566214e+01,1.791921792441840688e+00
1.524149757073449507e+01,2.705798416591024935e+00
1.526150328665332978e+01,3.207016793117597686e+00
1.528150900257216449e+01,3.164932652939212332e+00
1.530151471849099742e+01,3.321252861058996420e+00
1.532152043440983036e+01,3.487945888341901668e+00
1.534152615032866507e+01,3.236028643327533594e+00
1.536153186624749978e+01,1.982978663081662818e+00
1.538153758216633449e+01,2.853095981937315173e+00
1.540154329808516742e+01,2.426131134306465764e+00
1.542154901400400036e+01,2.455805925433452774e+00
1.544155472992283507e+01,3.472596725507061777e+00
1.546156044584166978e+01,3.210788518091236554e+00
1.548156616176050449e+01,1.970467419948187304e+00
1.550157187767933742e+01,2.550430074987266593e+00
1.552157759359817035e+01,1.939490884921799552e+00
1.554158330951700506e+01,2.845134379258632329e+00
1.556158902543583977e+01,3.587249462899821051e+00
1.558159474135467271e+01,3.554497205833750950e+00
1.560160045727350742e+01,3.412564556049289877e+00
1.562160617319234035e+01,3.369811980212785496e+00
1.564161188911117506e+01,2.896628981538317937e+00
1.566161760503000977e+01,2.644926530800002951e+00
1.568162332094884270e+01,3.176858911738304592e+00
1.570162903686767564e+01,3.626154499955626331e+00
1.572163475278651035e+01,3.009878381388504387e+00
1.574164046870534506e+01,3.007730852657677367e+00
1.576164618462417977e+01,2.883750215283400031e+00
1.578165190054301270e+01,1.934720623549458951e+00
1.580165761646184563e+01,2.298168170836278001e+00
1.582166333238068034e+01,2.916831396684239408e+00
1.584166904829951505e+01,3.239066936814573250e+00
1.586167476421834799e+01,3.581136865169984862e+00
1.588168048013718270e+01,3.431712541013048678e+00
1.590168619605601563e+01,2.616249588643205115e+00
1.592169191197485034e+01,2.846699109003654193e+00
1.594169762789368505e+01,3.007427305555207653e+00
1.596170334381251799e+01,3.327452705623240803e+00
1.598170905973135092e+01,3.147969791121226102e+00
1.600171477565018563e+01,2.021722250061953829e+00
1.602172049156902034e+01,2.182961276234991921e+00
1.604172620748785505e+01,3.560469045772205021e+00
1.606173192340668976e+01,2.933122663291792165e+00
1.608173763932552092e+01,3.409163473173552283e+00
1.610174335524435563e+01,3.506224156538205072e+00
1.612174907116319034e+01,2.964285405493142012e+00
1.614175478708202505e+01,2.407420109990171753e+00
1.616176050300085620e+01,2.341053578206653718e+00
1.618176621891969091e+01,2.824172079089196430e+00
1.620177193483852562e+01,2.853848425473695105e+00
1.622177765075736033e+01,3.733046859227222125e+00
1.624178336667619504e+01,2.323914674078975118e+00
1.626178908259502620e+01,2.914381479519121410e+00
1.628179479851386091e+01,3.214329542714926546e+00
1.630180051443269562e+01,2.285874844955733565e+00
1.632180623035153033e+01,3.607350321573916219e+00
1.634181194627036149e+01,3.296580952648059615e+00
1.636181766218919620e+01,3.150599377768752429e+00
1.638182337810803091e+01,3.367453624684576319e+00
1.640182909402686562e+01,2.535854927057850983e+00
1.642183480994570033e+01,3.453086407605256092e+00
1.644184052586453504e+01,2.758539887862114348e+00
1.646184624178336620e+01,3.536917878632707346e+00
1.648185195770220091e+01,3.280118405940933179e+00
1.650185767362103562e+01,2.797401824023515449e+00
1.652186338953986677e+01,2.361901815988371123e+00
1.654186910545870148e+01,3.565774021380629932e+00
1.656187482137753619e+01,2.156444606778032735e+00
1.658188053729637090e+01,2.303474889801290004e+00
1.660188625321520561e+01,2.291212805954607745e+00
1.662189196913404032e+01,3.607027765253111529e+00
1.664189768505287148e+01,2.075394791821655094e+00
1.666190340097170619e+01,2.053957127468922561e+00
1.668190911689054090e+01,2.237919292858637554e+00
1.670191483280937561e+01,2.122142542396702414e+00
1.672192054872820677e+01,2.147441204462652298e+00
1.674192626464704148e+01,2.513253887898675654e+00
1.676193198056587619e+01,2.660384886684746597e+00
1.678193769648471090e+01,2.153913187622024772e+00
1.680194341240354561e+01,3.516802556543706881e+00
1.682194912832238032e+01,2.725246253539870267e+00
1.684195484424121148e+01,2.810468390340925993e+00
1.686196056016004619e+01,2.695019530512280159e+00
1.688196627607888090e+01,2.249460529463835901e+00
1.690197199199771205e+01,3.184101557765063539e+00
1.692197770791654676e+01,3.050974819134856464e+00
1.694198342383538147e+01,3.821301670073562029e+00
1.696198913975421618e+01,3.242493570384581858e+00
1.698199485567305089e+01,3.450783848469362258e+00
1.700200057159188560e+01,3.794898001079352490e+00
1.702200628751071676e+01,2.927496822952215361e+00
1.704201200342955147e+01,3.177611070477494692e+00
1.706201771934838618e+01,3.732228454765100345e+00
1.708202343526722089e+01,3.482647407500340186e+00
1.710202915118605205e+01,2.257180899499875437e+00
1.712203486710488676e+01,3.038829423322292556e+00
1.714204058302372147e+01,2.532465167599467382e+00
1.716204629894255618e+01,2.391716576758163182e+00
1.718205201486139089e+01,3.186117131091477539e+00
1.720205773078022204e+01,2.552688217248439528e+00
1.722206344669905675e+01,2.476617736329445485e+00
1.724206916261789146e+01,3.782289218251301932e+00
1.726207487853672617e+01,2.457029348836072824e+00
1.728208059445555733e+01,3.055750557538529755e+00
1.730208631037439204e+01,2.527153498631483863e+00
1.732209202629322675e+01,2.805448951269905677e+00
1.734209774221206146e+01,2.967706535937275181e+00
1.736210345813089617e+01,2.639517912002150801e+00
1.738210917404973088e+01,3.284943870637615504e+00
1.740211488996856204e+01,3.863378811709583083e+00
1.742212060588739675e+01,3.104876978569197643e+00
1.744212632180623146e+01,3.994999974269370924e+00
1.746213203772506262e+01,2.470881809821823705e+00
1.748213775364389733e+01,3.718257877486556229e+00
1.750214346956273204e+01,3.566455508131912921e+00
1.752214918548156675e+01,4.115461679523740202e+00
1.754215490140040146e+01,4.176317548404837154e+00
1.756216061731923617e+01,3.871352160904855566e+00
1.758216633323806732e+01,4.283649906895313109e+00
1.760217204915690203e+01,2.831902417566273034e+00
1.762217776507573674e+01,4.342693652255633197e+00
1.764218348099457145e+01,2.753636686214515628e+00
1.766218919691340261e+01,3.574393171570445560e+00
1.768219491283223732e+01,4.277503934377922867e+00
1.770220062875107203e+01,3.762419483681996635e+00
1.772220634466990674e+01,3.064239445444014720e+00
1.774221206058874145e+01,3.325618147125834589e+00
1.776221777650757616e+01,2.862744721606457432e+00
1.778222349242640732e+01,3.184829817509801320e+00
1.780222920834524203e+01,3.929727936212952244e+00
1.782223492426407674e+01,4.033661947495503775e+00
1.784224064018290790e+01,2.956659781350886806e+00
1.786224635610174261e+01,4.508051262589842345e+00
1.788225207202057732e+01,2.750499421933708444e+00
1.790225778793941203e+01,4.248222990602038784e+00
1.792226350385824674e+01,3.906471164326269729e+00
1.794226921977708145e+01,3.823282044269164626e+00
1.796227493569591260e+01,2.839439270683248306e+00
