angle,intensity
1.000000000000000000e+01,5.156605894249695865e+01
1.002000571591883471e+01,5.312572935563886745e+01
1.004001143183766764e+01,5.359179997943960672e+01
1.006001714775650235e+01,5.443238401075581123e+01
1.008002286367533529e+01,5.483460402056046235e+01
1.010002857959417000e+01,5.513399968437533261e+01
1.012003429551300293e+01,5.540402845514461916e+01
1.014004001143183764e+01,5.446306654872742570e+01
1.016004572735067235e+01,5.449756031832642833e+01
1.018005144326950528e+01,5.439641345665518912e+01
1.020005715918833999e+01,5.445210846552878081e+01
1.022006287510717293e+01,5.443398423183484880e+01
1.024006859102600764e+01,5.416327027603779243e+01
1.026007430694484057e+01,5.336683387493370390e+01
1.028008002286367528e+01,5.220140396664969273e+01
1.030008573878250999e+01,5.059716107739726709e+01
1.032009145470134293e+01,4.978144942635879033e+01
1.034009717062017764e+01,4.782215587311439720e+01
1.036010288653901057e+01,4.605750629537506313e+01
1.038010860245784528e+01,4.399645939511831472e+01
1.040011431837667999e+01,4.134426394750818901e+01
1.042012003429551292e+01,3.894983848558317874e+01
1.044012575021434763e+01,3.510019228021810989e+01
1.046013146613318057e+01,3.299251197181326489e+01
1.048013718205201528e+01,3.075986337565242579e+01
1.050014289797084821e+01,2.767785772631199848e+01
1.052014861388968292e+01,2.540317737780359764e+01
1.054015432980851585e+01,2.390483345546847715e+01
1.056016004572735056e+01,2.091114894379388289e+01
1.058016576164618527e+01,1.940772881947982853e+01
1.060017147756501821e+01,1.845828971747632608e+01
1.062017719348385292e+01,1.729372820445882297e+01
1.064018290940268585e+01,1.659064800216015456e+01
1.066018862532152056e+01,1.584636100031052663e+01
1.068019434124035527e+01,1.600508343271889800e+01
1.070020005715918820e+01,1.498312432964341312e+01
1.072020577307802292e+01,1.468564880828640895e+01
1.074021148899685585e+01,1.468130078767256208e+01
1.076021720491569056e+01,1.503019053931773996e+01
1.078022292083452349e+01,1.531731392124711988e+01
1.080022863675335820e+01,1.440608112443543121e+01
1.082023435267219291e+01,1.509622956351879353e+01
1.084024006859102585e+01,1.517760648761349884e+01
1.086024578450986056e+01,1.521523007163125207e+01
1.088025150042869349e+01,1.575606900090067342e+01
1.090025721634752820e+01,1.617997305792819773e+01
1.092026293226636113e+01,1.558780357485066403e+01
1.094026864818519584e+01,1.615395706313368862e+01
1.096027436410403055e+01,1.553127073208175979e+01
1.098028008002286349e+01,1.687686066335009016e+01
1.100028579594169820e+01,1.644062537974764027e+01
1.102029151186053113e+01,1.684444495984995882e+01
1.104029722777936584e+01,1.716482927763181721e+01
1.106030294369819877e+01,1.745777880419507611e+01
1.108030865961703348e+01,1.759345640050744208e+01
1.110031437553586819e+01,1.840623421726423103e+01
1.112032009145470113e+01,1.845382778720059136e+01
1.114032580737353584e+01,1.807452716068643639e+01
1.116033152329236877e+01,1.872923723723825518e+01
1.118033723921120348e+01,1.920708533866052292e+01
1.120034295513003642e+01,1.965759855578965087e+01
1.122034867104887113e+01,2.039485331237542098e+01
1.124035438696770584e+01,2.038811289636924329e+01
1.126036010288653877e+01,2.084266169086134113e+01
1.128036581880537348e+01,2.140677379984436257e+01
1.130037153472420641e+01,2.163615272076129514e+01
1.132037725064304112e+01,2.136474161069283539e+01
1.134038296656187583e+01,2.164167615536167943e+01
1.136038868248070877e+01,2.321048523398070529e+01
1.138039439839954348e+01,2.305249311797453515e+01
1.140040011431837641e+01,2.314657413659526242e+01
1.142040583023721112e+01,2.363089989018086357e+01
1.144041154615604405e+01,2.447239524401777544e+01
1.146041726207487876e+01,2.451355069394598374e+01
1.148042297799371170e+01,2.570373866621915226e+01
1.150042869391254641e+01,2.599804810942062971e+01
1.152043440983138112e+01,2.552163185836788273e+01
1.154044012575021405e+01,2.715643215927824627e+01
1.156044584166904876e+01,2.770432299787485064e+01
1.158045155758788169e+01,2.786323633759166540e+01
1.160045727350671640e+01,2.831257337815039676e+01
1.162046298942555111e+01,2.822360817231579233e+01
1.164046870534438405e+01,2.869199261661999145e+01
1.166047442126321876e+01,2.938043696279051886e+01
1.168048013718205169e+01,3.106282223913095208e+01
1.170048585310088640e+01,3.132667430805068776e+01
1.172049156901971934e+01,3.115355122263304821e+01
1.174049728493855405e+01,3.183588713794210889e+01
1.176050300085738698e+01,3.292501855053140503e+01
1.178050871677622169e+01,3.425553461282508749e+01
1.180051443269505640e+01,3.394335625272116630e+01
1.182052014861388933e+01,3.456663557660645125e+01
1.184052586453272404e+01,3.539508325987586090e+01
1.186053158045155698e+01,3.650181112646851744e+01
1.188053729637039169e+01,3.659546271012263929e+01
1.190054301228922640e+01,3.770428022735145390e+01
1.192054872820805933e+01,3.844443832308506614e+01
1.194055444412689404e+01,3.915261954260714816e+01
1.196056016004572697e+01,4.021165034194027044e+01
1.198056587596456168e+01,4.042119886715575916e+01
1.200057159188339639e+01,4.221079857845662531e+01
1.202057730780222933e+01,4.277208763616309284e+01
1.204058302372106226e+01,4.371422855256813733e+01
1.206058873963989697e+01,4.439235539418531573e+01
1.208059445555873168e+01,4.469837514889728425e+01
1.210060017147756461e+01,4.589470344910048283e+01
1.212060588739639932e+01,4.602186832172521491e+01
1.214061160331523226e+01,4.704694734465554973e+01
1.216061731923406697e+01,4.878431081371858369e+01
1.218062303515290168e+01,4.942327358184435582e+01
1.220062875107173461e+01,5.000566815563697531e+01
1.222063446699056932e+01,5.024673925688084353e+01
1.224064018290940226e+01,5.115437062450083516e+01
1.226064589882823697e+01,5.199675488961902659e+01
1.228065161474707168e+01,5.232805041421603676e+01
1.230065733066590461e+01,5.193731444585234414e+01
1.232066304658473754e+01,5.301832213098721525e+01
1.234066876250357225e+01,5.219674677828152198e+01
1.236067447842240696e+01,5.179045603402999376e+01
1.238068019434123990e+01,5.113033116410358758e+01
1.240068591026007461e+01,5.116261920459572110e+01
1.242069162617890754e+01,5.062341543456717829e+01
1.244069734209774225e+01,4.912187261233518853e+01
1.246070305801657696e+01,4.821405759553088899e+01
1.248070877393540989e+01,4.639906007228343299e+01
1.250071448985424460e+01,4.422743866565710391e+01
1.252072020577307754e+01,4.218404555912196230e+01
1.254072592169191225e+01,3.937857312640509377e+01
1.256073163761074696e+01,3.716153848036899632e+01
1.258073735352957989e+01,3.444631293630813929e+01
1.260074306944841460e+01,3.077936120455575519e+01
1.262074878536724754e+01,2.885567725585438126e+01
1.264075450128608225e+01,2.479363419015319181e+01
1.266076021720491518e+01,2.211443680433932713e+01
1.268076593312374989e+01,1.975964302651878057e+01
1.270077164904258282e+01,1.693083985372345168e+01
1.272077736496141753e+01,1.520169031410122429e+01
1.274078308088025224e+01,1.352170328833219592e+01
1.276078879679908518e+01,1.198638431516187275e+01
1.278079451271791989e+01,1.135007855058109527e+01
1.280080022863675282e+01,9.381755043659762094e+00
1.282080594455558753e+01,8.962272709146812844e+00
1.284081166047442224e+01,7.683052496252885000e+00
1.286081737639325517e+01,7.783455689484637396e+00
1.288082309231208988e+01,7.814905767391095992e+00
1.290082880823092282e+01,7.582424823769155608e+00
1.292083452414975753e+01,6.690608433756304763e+00
1.294084024006859224e+01,7.013605501203581838e+00
1.296084595598742517e+01,6.254348528345254010e+00
1.298085167190625810e+01,6.666092878025648538e+00
1.300085738782509281e+01,6.200744761832980956e+00
1.302086310374392752e+01,6.839401417649245474e+00
1.304086881966276046e+01,6.559518563154126625e+00
1.306087453558159517e+01,6.012506813174496756e+00
1.308088025150042810e+01,5.941885201688732465e+00
1.310088596741926281e+01,6.047086008597728934e+00
1.312089168333809752e+01,5.726086210801724086e+00
1.314089739925693046e+01,6.546592652192471107e+00
1.316090311517576517e+01,6.230011845853438146e+00
1.318090883109459810e+01,6.237165008810205968e+00
1.320091454701343281e+01,6.269249435113733782e+00
1.322092026293226752e+01,6.342535787522427526e+00
1.324092597885110045e+01,5.579463655832419988e+00
1.326093169476993339e+01,5.844278133151938448e+00
1.328093741068876810e+01,6.051136736750873268e+00
1.330094312660760281e+01,6.409532141603953903e+00
1.332094884252643574e+01,5.810902425745739563e+00
1.334095455844527045e+01,5.498624728662451666e+00
1.336096027436410338e+01,6.022802664282512097e+00
1.338096599028293809e+01,6.100153654914528545e+00
1.340097170620177280e+01,5.449182986409958573e+00
1.342097742212060574e+01,6.439668617622921865e+00
1.344098313803944045e+01,6.285617410782228021e+00
1.346098885395827338e+01,6.545984300491263674e+00
1.348099456987710809e+01,6.791009152744431177e+00
1.350100028579594280e+01,6.802251499012816893e+00
1.352100600171477573e+01,6.772106314425196061e+00
1.354101171763361044e+01,5.816814483323519802e+00
1.356101743355244338e+01,5.984208202281152467e+00
1.358102314947127809e+01,6.571447935895422532e+00
1.360102886539011102e+01,6.455106163114843199e+00
1.362103458130894573e+01,6.827990400506828372e+00
1.364104029722777867e+01,6.429097653199059792e+00
1.366104601314661338e+01,7.035166732854477800e+00
1.368105172906544809e+01,7.214763322780408217e+00
1.370105744498428102e+01,6.729165331974408026e+00
1.372106316090311573e+01,6.868041511224712181e+00
1.374106887682194866e+01,6.972968847543358883e+00
1.376107459274078337e+01,7.382964215361316640e+00
1.378108030865961808e+01,7.750922841766151095e+00
1.380108602457845102e+01,7.764166553391531167e+00
1.382109174049728573e+01,8.709916771056416707e+00
1.384109745641611866e+01,7.747933331079430275e+00
1.386110317233495337e+01,7.968558394987864446e+00
1.388110888825378808e+01,8.870667409734902975e+00
1.390111460417262101e+01,9.271418785540349816e+00
1.392112032009145395e+01,8.878436144612184222e+00
1.394112603601028866e+01,8.648644060252362209e+00
1.396113175192912337e+01,9.331603372965698640e+00
1.398113746784795630e+01,9.712474967677390936e+00
1.400114318376679101e+01,9.850265737022157353e+00
1.402114889968562395e+01,9.286235485742956541e+00
1.404115461560445866e+01,9.331331327354185134e+00
1.406116033152329337e+01,1.038632602195584909e+01
1.408116604744212630e+01,9.819424077807846984e+00
1.410117176336095923e+01,1.015253712401632669e+01
1.412117747927979394e+01,1.063428732740979576e+01
1.414118319519862865e+01,1.026632691879186510e+01
1.416118891111746336e+01,1.144114330090844334e+01
1.418119462703629630e+01,1.061920846752402170e+01
1.420120034295512923e+01,1.136635812766544085e+01
1.422120605887396394e+01,1.156591862939286131e+01
1.424121177479279865e+01,1.124385524154742200e+01
1.426121749071163336e+01,1.112890189853892053e+01
1.428122320663046629e+01,1.154963856983342652e+01
1.430122892254929923e+01,1.247612096903974788e+01
1.432123463846813394e+01,1.254715844138059033e+01
1.434124035438696865e+01,1.314237825586833175e+01
1.436124607030580158e+01,1.340799604812253421e+01
1.438125178622463629e+01,1.403957626293577654e+01
1.440125750214346922e+01,1.318018378859105155e+01
1.442126321806230393e+01,1.463744084537162138e+01
1.444126893398113864e+01,1.462625987804766048e+01
1.446127464989997158e+01,1.506863813667235164e+01
1.448128036581880451e+01,1.474417798497342602e+01
1.450128608173763922e+01,1.541554543165435831e+01
1.452129179765647393e+01,1.560022153237681231e+01
1.454129751357530864e+01,1.650422191230267543e+01
1.456130322949414158e+01,1.605229160218744155e+01
1.458130894541297451e+01,1.679942353368341301e+01
1.460131466133180922e+01,1.734947141124832726e+01
1.462132037725064393e+01,1.749991705586959867e+01
1.464132609316947686e+01,1.812867543479558918e+01
1.466133180908831157e+01,1.824988930414455979e+01
1.468133752500714451e+01,1.900564884375262409e+01
1.470134324092597922e+01,1.923476483755698752e+01
1.472134895684481393e+01,1.966169583195412329e+01
1.474135467276364686e+01,2.076284196941832860e+01
1.476136038868247979e+01,2.094291159224459875e+01
1.478136610460131450e+01,2.110236903520705809e+01
1.480137182052014921e+01,2.111844098773170941e+01
1.482137753643898392e+01,2.296795853963282141e+01
1.484138325235781686e+01,2.284746838380245038e+01
1.486138896827664979e+01,2.398840347151545416e+01
1.488139468419548450e+01,2.418182435733224267e+01
1.490140040011431921e+01,2.487383450311705602e+01
1.492140611603315392e+01,2.521310913913042029e+01
1.494141183195198685e+01,2.590369003631962386e+01
1.496141754787081979e+01,2.629101306294009888e+01
1.498142326378965450e+01,2.758340826059792406e+01
1.500142897970848921e+01,2.728923615387393653e+01
1.502143469562732214e+01,2.763202109498296366e+01
1.504144041154615508e+01,2.898281160445424121e+01
1.506144612746498979e+01,3.003042766325269142e+01
1.508145184338382450e+01,2.997138196667260956e+01
1.510145755930265921e+01,3.064677517793628780e+01
1.512146327522149214e+01,3.097151203445027434e+01
1.514146899114032507e+01,3.081428438130739167e+01
1.516147470705915978e+01,3.110002773951946153e+01
1.518148042297799449e+01,3.200120632141845078e+01
1.520148613889682920e+01,3.178116462902613648e+01
1.522149185481566214e+01,3.202366550811129287e+01
1.524149757073449507e+01,3.140344087221870595e+01
1.526150328665332978e+01,3.141467889592703244e+01
1.528150900257216449e+01,3.029733100090486886e+01
1.530151471849099742e+01,2.988786131563539783e+01
1.532152043440983036e+01,2.893756818847878520e+01
1.534152615032866507e+01,2.831447276868376051e+01
1.536153186624749978e+01,2.722354062348910020e+01
1.538153758216633449e+01,2.570733161344538686e+01
1.540154329808516742e+01,2.371650359938761810e+01
1.542154901400400036e+01,2.217553597588253567e+01
1.544155472992283507e+01,2.094950314888386345e+01
1.546156044584166978e+01,1.896016595380168468e+01
1.548156616176050449e+01,1.784662469353710179e+01
1.550157187767933742e+01,1.737037306992252539e+01
1.552157759359817035e+01,1.552566856915471583e+01
1.554158330951700506e+01,1.488846190268598235e+01
1.556158902543583977e+01,1.350259738338209736e+01
1.558159474135467271e+01,1.249775028422460998e+01
1.560160045727350742e+01,1.218816407107524213e+01
1.562160617319234035e+01,1.251024337886721938e+01
1.564161188911117506e+01,1.108828733858970850e+01
1.566161760503000977e+01,1.185604519465331030e+01
1.568162332094884270e+01,1.098717746040733800e+01
1.570162903686767564e+01,1.139444807035426876e+01
1.572163475278651035e+01,1.195907104989521663e+01
1.574164046870534506e+01,1.112062387557626053e+01
1.576164618462417977e+01,1.254299848407295848e+01
1.578165190054301270e+01,1.187691928185051538e+01
1.580165761646184563e+01,1.229012309836875616e+01
1.582166333238068034e+01,1.289764835383447483e+01
1.584166904829951505e+01,1.228800447575951260e+01
1.586167476421834799e+01,1.344611382345379624e+01
1.588168048013718270e+01,1.373244420984893921e+01
1.590168619605601563e+01,1.343558766161044460e+01
1.592169191197485034e+01,1.426362899458625755e+01
1.594169762789368505e+01,1.418284684385349692e+01
1.596170334381251799e+01,1.432809007939117762e+01
1.598170905973135092e+01,1.494771473241815762e+01
1.600171477565018563e+01,1.562237017378751780e+01
1.602172049156902034e+01,1.609954102213314542e+01
1.604172620748785505e+01,1.629878214219246857e+01
1.606173192340668976e+01,1.712080165313389202e+01
1.608173763932552092e+01,1.691644251343274874e+01
1.610174335524435563e+01,1.776430912674335261e+01
1.612174907116319034e+01,1.789611435501111814e+01
1.614175478708202505e+01,1.809353695165679454e+01
1.616176050300085620e+01,1.902587934177276807e+01
1.618176621891969091e+01,1.947463241117012345e+01
1.620177193483852562e+01,1.927812572751135534e+01
1.622177765075736033e+01,1.984498992744093471e+01
1.624178336667619504e+01,2.157122484498253101e+01
1.626178908259502620e+01,2.081263778641474005e+01
1.628179479851386091e+01,2.185310224766160303e+01
1.630180051443269562e+01,2.312231006322613780e+01
1.632180623035153033e+01,2.317676473063914955e+01
1.634181194627036149e+01,2.415294758035567924e+01
1.636181766218919620e+01,2.509938539272212665e+01
1.638182337810803091e+01,2.414036696423169204e+01
1.640182909402686562e+01,2.539566428135988829e+01
1.642183480994570033e+01,2.643810373309050377e+01
1.644184052586453504e+01,2.733278327754815606e+01
1.646184624178336620e+01,2.765564415587456537e+01
1.648185195770220091e+01,2.896184502499589541e+01
1.650185767362103562e+01,2.954089857221426740e+01
1.652186338953986677e+01,3.038423052326353258e+01
1.654186910545870148e+01,3.125147089390259225e+01
1.656187482137753619e+01,3.101848762121071701e+01
1.658188053729637090e+01,3.166678630373395364e+01
1.660188625321520561e+01,3.308065272236056131e+01
1.662189196913404032e+01,3.454285131268244413e+01
1.664189768505287148e+01,3.444486235274588637e+01
1.666190340097170619e+01,3.491490207917775734e+01
1.668190911689054090e+01,3.592950922438779315e+01
1.670191483280937561e+01,3.639371737199766699e+01
1.672192054872820677e+01,3.725267812836651160e+01
1.674192626464704148e+01,3.702589006435621144e+01
1.676193198056587619e+01,3.793667798775788214e+01
1.678193769648471090e+01,3.738712682749716976e+01
1.680194341240354561e+01,3.715897613173422087e+01
1.682194912832238032e+01,3.664435744744538681e+01
1.684195484424121148e+01,3.644055238667447583e+01
1.686196056016004619e+01,3.617903486643808009e+01
1.688196627607888090e+01,3.555629651156436211e+01
1.690197199199771205e+01,3.571991767761758751e+01
1.692197770791654676e+01,3.563855894357605081e+01
1.694198342383538147e+01,3.374124864920797506e+01
1.696198913975421618e+01,3.376882727656295202e+01
1.698199485567305089e+01,3.363510006722439982e+01
1.700200057159188560e+01,3.302803604450549102e+01
1.702200628751071676e+01,3.255306499183598845e+01
1.704201200342955147e+01,3.254500083780826003e+01
1.706201771934838618e+01,3.292053838501674790e+01
1.708202343526722089e+01,3.224538672730437128e+01
1.710202915118605205e+01,3.324849794838762307e+01
1.712203486710488676e+01,3.400664436789797662e+01
1.714204058302372147e+01,3.490594434911399446e+01
1.716204629894255618e+01,3.496214635345560140e+01
1.718205201486139089e+01,3.618819048263886629e+01
1.720205773078022204e+01,3.658363714100782715e+01
1.722206344669905675e+01,3.751339512893054717e+01
1.724206916261789146e+01,3.767250740495047978e+01
1.726207487853672617e+01,3.824980983088136099e+01
1.728208059445555733e+01,3.948853003328467537e+01
1.730208631037439204e+01,3.999734881587415458e+01
1.732209202629322675e+01,4.036357307462473898e+01
1.734209774221206146e+01,4.094531234963299227e+01
1.736210345813089617e+01,4.218671360096074352e+01
1.738210917404973088e+01,4.213681713512625038e+01
1.740211488996856204e+01,4.212372524238265470e+01
1.742212060588739675e+01,4.139604817797407321e+01
1.744212632180623146e+01,4.187914631266671961e+01
1.746213203772506262e+01,4.145876501779584089e+01
1.748213775364389733e+01,3.974167432273804224e+01
1.750214346956273204e+01,3.882538696619023000e+01
1.752214918548156675e+01,3.709506427794836014e+01
1.754215490140040146e+01,3.584279230315059550e+01
1.756216061731923617e+01,3.336147818428629108e+01
1.758216633323806732e+01,3.104435463150798924e+01
1.760217204915690203e+01,3.008585074026679251e+01
1.762217776507573674e+01,2.759750923273166379e+01
1.764218348099457145e+01,2.538605249908599859e+01
1.766218919691340261e+01,2.327016712079282001e+01
1.768219491283223732e+01,2.200634521549392986e+01
1.770220062875107203e+01,1.997178240264290139e+01
1.772220634466990674e+01,1.976465580979615311e+01
1.774221206058874145e+01,1.815432798423739769e+01
1.776221777650757616e+01,1.675741462986943375e+01
1.778222349242640732e+01,1.631859762369000322e+01
1.780222920834524203e+01,1.656547283698653317e+01
1.782223492426407674e+01,1.548343368063966352e+01
1.784224064018290790e+01,1.617678291785443889e+01
1.786224635610174261e+01,1.597773652044327974e+01
1.788225207202057732e+01,1.493275849856893345e+01
1.790225778793941203e+01,1.564021544747674142e+01
1.792226350385824674e+01,1.503331977270368114e+01
1.794226921977708145e+01,1.598706271566367398e+01
1.796227493569591260e+01,1.576037199488416363e+01
