angle,intensity
1.000000000000000000e+01,9.690120538651022741e+01
1.002000571591883471e+01,9.958664895295919450e+01
1.004001143183766764e+01,9.938438185200078578e+01
1.006001714775650235e+01,9.752588523294640765e+01
1.008002286367533529e+01,9.625004752506336558e+01
1.010002857959417000e+01,9.548747386311256946e+01
1.012003429551300293e+01,9.349897593191481349e+01
1.014004001143183764e+01,9.115184656207334513e+01
1.016004572735067235e+01,8.878471985248866361e+01
1.018005144326950528e+01,8.557625177694619367e+01
1.020005715918833999e+01,8.124857127232770893e+01
1.022006287510717293e+01,7.634138760083047259e+01
1.024006859102600764e+01,7.128871470235830543e+01
1.026007430694484057e+01,6.517846952947820682e+01
1.028008002286367528e+01,5.956416845105449909e+01
1.030008573878250999e+01,5.438056446489923701e+01
1.032009145470134293e+01,4.915335069182648908e+01
1.034009717062017764e+01,4.282891011205678211e+01
1.036010288653901057e+01,3.785182146017311311e+01
1.038010860245784528e+01,3.319979121470801431e+01
1.040011431837667999e+01,2.783396461601115845e+01
1.042012003429551292e+01,2.381093062633249247e+01
1.044012575021434763e+01,2.072240773550976201e+01
1.046013146613318057e+01,1.892810276161568339e+01
1.048013718205201528e+01,1.540105097286950731e+01
1.050014289797084821e+01,1.439640452431892115e+01
1.052014861388968292e+01,1.355426217755715612e+01
1.054015432980851585e+01,1.188815365420825998e+01
1.056016004572735056e+01,1.116992956492889988e+01
1.058016576164618527e+01,1.052821663530058771e+01
1.060017147756501821e+01,8.845228278824805557e+00
1.062017719348385292e+01,8.136033921670161817e+00
1.064018290940268585e+01,8.072300245212680636e+00
1.066018862532152056e+01,8.032371513164461518e+00
1.068019434124035527e+01,7.499630862881273785e+00
1.070020005715918820e+01,7.155004996101657966e+00
1.072020577307802292e+01,7.562028033898611667e+00
1.074021148899685585e+01,7.731664830602252181e+00
1.076021720491569056e+01,6.467710201589875751e+00
1.078022292083452349e+01,6.972124847129149927e+00
1.080022863675335820e+01,5.554183768234519647e+00
1.082023435267219291e+01,6.086504675350711047e+00
1.084024006859102585e+01,5.705857834011363039e+00
1.086024578450986056e+01,5.559086813066222987e+00
1.088025150042869349e+01,5.947350259361661173e+00
1.090025721634752820e+01,6.180839808284252612e+00
1.092026293226636113e+01,6.296307922211282104e+00
1.094026864818519584e+01,6.364182008398303836e+00
1.096027436410403055e+01,6.070002907302038508e+00
1.098028008002286349e+01,6.235563667719096870e+00
1.100028579594169820e+01,5.513376728585186015e+00
1.102029151186053113e+01,5.882723432711946643e+00
1.104029722777936584e+01,5.803590636757406607e+00
1.106030294369819877e+01,5.675637833579640912e+00
1.108030865961703348e+01,5.393959259231634107e+00
1.110031437553586819e+01,5.357073690931869692e+00
1.112032009145470113e+01,5.855298161462169304e+00
1.114032580737353584e+01,6.261633999692579167e+00
1.116033152329236877e+01,5.311559937599196424e+00
1.118033723921120348e+01,6.336185236134260990e+00
1.120034295513003642e+01,6.245888005675027443e+00
1.122034867104887113e+01,6.000566211131312500e+00
1.124035438696770584e+01,5.241691153068788189e+00
1.126036010288653877e+01,5.617521845368319333e+00
1.128036581880537348e+01,5.891315216078066186e+00
1.130037153472420641e+01,6.749096636507959879e+00
1.132037725064304112e+01,5.609943006310238900e+00
1.134038296656187583e+01,6.243770814496848232e+00
1.136038868248070877e+01,6.808390725095549989e+00
1.138039439839954348e+01,6.637473930409953482e+00
1.140040011431837641e+01,6.124627294149894929e+00
1.142040583023721112e+01,6.559978697552813820e+00
1.144041154615604405e+01,5.898452444517690907e+00
1.146041726207487876e+01,5.739963909506396789e+00
1.148042297799371170e+01,6.988288339193565513e+00
1.150042869391254641e+01,5.980982875003247656e+00
1.152043440983138112e+01,7.007408907757408656e+00
1.154044012575021405e+01,6.562040140885358142e+00
1.156044584166904876e+01,6.155161377142973400e+00
1.158045155758788169e+01,6.165599581446087996e+00
1.160045727350671640e+01,6.817889781019811579e+00
1.162046298942555111e+01,6.604888980611703708e+00
1.164046870534438405e+01,6.598956883313902289e+00
1.166047442126321876e+01,7.528022996223675989e+00
1.168048013718205169e+01,6.540106527772579170e+00
1.170048585310088640e+01,7.559865363231363489e+00
1.172049156901971934e+01,7.145556976011684824e+00
1.174049728493855405e+01,8.092213613672260664e+00
1.176050300085738698e+01,8.446764900833986900e+00
1.178050871677622169e+01,7.955017899428508343e+00
1.180051443269505640e+01,8.383615647437654417e+00
1.182052014861388933e+01,7.477517663786803048e+00
1.184052586453272404e+01,8.040210829351659427e+00
1.186053158045155698e+01,8.443147434727809042e+00
1.188053729637039169e+01,8.647032479935297999e+00
1.190054301228922640e+01,8.587346262765670701e+00
1.192054872820805933e+01,8.939049590989911920e+00
1.194055444412689404e+01,9.297817792813457771e+00
1.196056016004572697e+01,9.073559992547913566e+00
1.198056587596456168e+01,9.303099111006421396e+00
1.200057159188339639e+01,8.998092606107388036e+00
1.202057730780222933e+01,8.903814777367184519e+00
1.204058302372106226e+01,9.162448025727888634e+00
1.206058873963989697e+01,9.332113459301924152e+00
1.208059445555873168e+01,9.192171197677060590e+00
1.210060017147756461e+01,1.024033546370623782e+01
1.212060588739639932e+01,1.011768632092593379e+01
1.214061160331523226e+01,9.236960951381782081e+00
1.216061731923406697e+01,9.590407873626155322e+00
1.218062303515290168e+01,9.812379792567742953e+00
1.220062875107173461e+01,9.791181006030814871e+00
1.222063446699056932e+01,9.619994320620737227e+00
1.224064018290940226e+01,9.704732364780966236e+00
1.226064589882823697e+01,1.001776334920072919e+01
1.228065161474707168e+01,9.897346512735303747e+00
1.230065733066590461e+01,9.047665990176364303e+00
1.232066304658473754e+01,1.014315982529320692e+01
1.234066876250357225e+01,1.051281495736911786e+01
1.236067447842240696e+01,1.063076075277729693e+01
1.238068019434123990e+01,1.033040752272682994e+01
1.240068591026007461e+01,1.001441375068116457e+01
1.242069162617890754e+01,9.930927505310309655e+00
1.244069734209774225e+01,9.888980637221706615e+00
1.246070305801657696e+01,1.000752366823536121e+01
1.248070877393540989e+01,9.842532581460703867e+00
1.250071448985424460e+01,1.093499491051915129e+01
1.252072020577307754e+01,1.110380974111614094e+01
1.254072592169191225e+01,1.087635048428381523e+01
1.256073163761074696e+01,1.002805443566026611e+01
1.258073735352957989e+01,1.089151743699225960e+01
1.260074306944841460e+01,1.070573980183178264e+01
1.262074878536724754e+01,1.101044844269625500e+01
1.264075450128608225e+01,1.222865791565093474e+01
1.266076021720491518e+01,1.203764213489900925e+01
1.268076593312374989e+01,1.177813497898545769e+01
1.270077164904258282e+01,1.211286917318760814e+01
1.272077736496141753e+01,1.244907681729646143e+01
1.274078308088025224e+01,1.296769301135821095e+01
1.276078879679908518e+01,1.329282503913902858e+01
1.278079451271791989e+01,1.297317339234417943e+01
1.280080022863675282e+01,1.394512950032887488e+01
1.282080594455558753e+01,1.338482839751541320e+01
1.284081166047442224e+01,1.416334556298818015e+01
1.286081737639325517e+01,1.428426947526945412e+01
1.288082309231208988e+01,1.493818485775917537e+01
1.290082880823092282e+01,1.474534882248572742e+01
1.292083452414975753e+01,1.516052875561443969e+01
1.294084024006859224e+01,1.542565086259947194e+01
1.296084595598742517e+01,1.552825406268619624e+01
1.298085167190625810e+01,1.549411322695256743e+01
1.300085738782509281e+01,1.547285649029088006e+01
1.302086310374392752e+01,1.610372010252872599e+01
1.304086881966276046e+01,1.585874566879733649e+01
1.306087453558159517e+01,1.541204816649198150e+01
1.308088025150042810e+01,1.539953726519433985e+01
1.310088596741926281e+01,1.667040272993905603e+01
1.312089168333809752e+01,1.659635769559747942e+01
1.314089739925693046e+01,1.640013880143515834e+01
1.316090311517576517e+01,1.575310921662908470e+01
1.318090883109459810e+01,1.648821394525682038e+01
1.320091454701343281e+01,1.575937997621595343e+01
1.322092026293226752e+01,1.497725982056088334e+01
1.324092597885110045e+01,1.502661715202960657e+01
1.326093169476993339e+01,1.507035197772363588e+01
1.328093741068876810e+01,1.444108282553772682e+01
1.330094312660760281e+01,1.406058192135780338e+01
1.332094884252643574e+01,1.377392029753730185e+01
1.334095455844527045e+01,1.282495866151656827e+01
1.336096027436410338e+01,1.286754147027659201e+01
1.338096599028293809e+01,1.224828213312443381e+01
1.340097170620177280e+01,1.238596291717478692e+01
1.342097742212060574e+01,1.115920725585871942e+01
1.344098313803944045e+01,1.152565640493567045e+01
1.346098885395827338e+01,1.163157594781355897e+01
1.348099456987710809e+01,1.135943210589280739e+01
1.350100028579594280e+01,1.134635281842502152e+01
1.352100600171477573e+01,1.146082298429318413e+01
1.354101171763361044e+01,1.091711548335497817e+01
1.356101743355244338e+01,1.127664713472394098e+01
1.358102314947127809e+01,1.150215500560609527e+01
1.360102886539011102e+01,1.193876874562583268e+01
1.362103458130894573e+01,1.158894720742456208e+01
1.364104029722777867e+01,1.214837192298617552e+01
1.366104601314661338e+01,1.205077217552511470e+01
1.368105172906544809e+01,1.215918312378814647e+01
1.370105744498428102e+01,1.215052715032438257e+01
1.372106316090311573e+01,1.232653923785913719e+01
1.374106887682194866e+01,1.193478904087394632e+01
1.376107459274078337e+01,1.260712843494078506e+01
1.378108030865961808e+01,1.301539398038474182e+01
1.380108602457845102e+01,1.260458505140128693e+01
1.382109174049728573e+01,1.288263214154139646e+01
1.384109745641611866e+01,1.180418387920728662e+01
1.386110317233495337e+01,1.181462132743528670e+01
1.388110888825378808e+01,1.222551512662673190e+01
1.390111460417262101e+01,1.187958905388841302e+01
1.392112032009145395e+01,1.179573866745345789e+01
1.394112603601028866e+01,1.116341970860953303e+01
1.396113175192912337e+01,1.139546293320181292e+01
1.398113746784795630e+01,1.057186331157605608e+01
1.400114318376679101e+01,1.125019574147916757e+01
1.402114889968562395e+01,1.020295291708418262e+01
1.404115461560445866e+01,1.035509611941642305e+01
1.406116033152329337e+01,1.019005835908174262e+01
1.408116604744212630e+01,1.008043765935536840e+01
1.410117176336095923e+01,1.035453723912631752e+01
1.412117747927979394e+01,1.053779541755079130e+01
1.414118319519862865e+01,9.538021072249264876e+00
1.416118891111746336e+01,1.004733221063647619e+01
1.418119462703629630e+01,9.920153962499199451e+00
1.420120034295512923e+01,9.116185107451585168e+00
1.422120605887396394e+01,1.059740492190155869e+01
1.424121177479279865e+01,9.823587921436818249e+00
1.426121749071163336e+01,1.033472822113344058e+01
1.428122320663046629e+01,1.070134983637844073e+01
1.430122892254929923e+01,1.035600156521211090e+01
1.432123463846813394e+01,1.109261597860415094e+01
1.434124035438696865e+01,1.087304490798937273e+01
1.436124607030580158e+01,1.110909564045778275e+01
1.438125178622463629e+01,1.130460407454473426e+01
1.440125750214346922e+01,1.092822749238929525e+01
1.442126321806230393e+01,1.199433850784734190e+01
1.444126893398113864e+01,1.214312632881380516e+01
1.446127464989997158e+01,1.191976505354790739e+01
1.448128036581880451e+01,1.281409508548062703e+01
1.450128608173763922e+01,1.298038216230560593e+01
1.452129179765647393e+01,1.366816987148315121e+01
1.454129751357530864e+01,1.257538168188871808e+01
1.456130322949414158e+01,1.345311348525046213e+01
1.458130894541297451e+01,1.367228385750399156e+01
1.460131466133180922e+01,1.395653488889304583e+01
1.462132037725064393e+01,1.393714088269788753e+01
1.464132609316947686e+01,1.380939790488163510e+01
1.466133180908831157e+01,1.541998268776099934e+01
1.468133752500714451e+01,1.496200827967709124e+01
1.470134324092597922e+01,1.481556716589147982e+01
1.472134895684481393e+01,1.519497207779991399e+01
1.474135467276364686e+01,1.488025180161072214e+01
1.476136038868247979e+01,1.478712815656875890e+01
1.478136610460131450e+01,1.421633709597461959e+01
1.480137182052014921e+01,1.466961378283147610e+01
1.482137753643898392e+01,1.472049270206926863e+01
1.484138325235781686e+01,1.386942451726338987e+01
1.486138896827664979e+01,1.369021867187307251e+01
1.488139468419548450e+01,1.387305065382397729e+01
1.490140040011431921e+01,1.389014032650283070e+01
1.492140611603315392e+01,1.376297530230098864e+01
1.494141183195198685e+01,1.330780656571577936e+01
1.496141754787081979e+01,1.311491604110664255e+01
1.498142326378965450e+01,1.198975107730923106e+01
1.500142897970848921e+01,1.203405718780319233e+01
1.502143469562732214e+01,1.188921537110444859e+01
1.504144041154615508e+01,1.084370541030146740e+01
1.506144612746498979e+01,1.167090506760303370e+01
1.508145184338382450e+01,1.126472777295507299e+01
1.510145755930265921e+01,1.053795459220391351e+01
1.512146327522149214e+01,1.053211515239503981e+01
1.514146899114032507e+01,1.003487446735365296e+01
1.516147470705915978e+01,9.528128693803621374e+00
1.518148042297799449e+01,1.027460903577838991e+01
1.520148613889682920e+01,9.854217989540149603e+00
1.522149185481566214e+01,9.424073045371049062e+00
1.524149757073449507e+01,9.520999390720364275e+00
1.526150328665332978e+01,9.266994879127313567e+00
1.528150900257216449e+01,8.739235804497345939e+00
1.530151471849099742e+01,8.156515390813680710e+00
1.532152043440983036e+01,8.029858451982548218e+00
1.534152615032866507e+01,8.181327693679749657e+00
1.536153186624749978e+01,7.992608371585101068e+00
1.538153758216633449e+01,8.133082503421977805e+00
1.540154329808516742e+01,8.743768186620703986e+00
1.542154901400400036e+01,8.598960833909936596e+00
1.544155472992283507e+01,8.698214507895912107e+00
1.546156044584166978e+01,9.194971743518692620e+00
1.548156616176050449e+01,9.168683665484483214e+00
1.550157187767933742e+01,9.258825740619887057e+00
1.552157759359817035e+01,8.462308379959125659e+00
1.554158330951700506e+01,8.582821691223641025e+00
1.556158902543583977e+01,9.631911525265888230e+00
1.558159474135467271e+01,8.726439782929544364e+00
1.560160045727350742e+01,9.093940272530900870e+00
1.562160617319234035e+01,9.621536634436225199e+00
1.564161188911117506e+01,9.448232343348731632e+00
1.566161760503000977e+01,1.003173382664165558e+01
1.568162332094884270e+01,9.884399825039897891e+00
1.570162903686767564e+01,1.008297332697324578e+01
1.572163475278651035e+01,9.819035360050047956e+00
1.574164046870534506e+01,9.157777282094473392e+00
1.576164618462417977e+01,8.928340929157180028e+00
1.578165190054301270e+01,9.683598032299055802e+00
1.580165761646184563e+01,8.790537644264869499e+00
1.582166333238068034e+01,8.705513233786806637e+00
1.584166904829951505e+01,8.923774933712760316e+00
1.586167476421834799e+01,7.931840039763608630e+00
1.588168048013718270e+01,8.748682663264368387e+00
1.590168619605601563e+01,8.497695733212786706e+00
1.592169191197485034e+01,8.857942958401579858e+00
1.594169762789368505e+01,8.094440575839879415e+00
1.596170334381251799e+01,7.415484300363002212e+00
1.598170905973135092e+01,8.020770625681786115e+00
1.600171477565018563e+01,7.018708143787123710e+00
1.602172049156902034e+01,6.963973068929997012e+00
1.604172620748785505e+01,7.264101645017987607e+00
1.606173192340668976e+01,6.530283427830553933e+00
1.608173763932552092e+01,6.924890595184731268e+00
1.610174335524435563e+01,6.898809758799917091e+00
1.612174907116319034e+01,5.887945799470203134e+00
1.614175478708202505e+01,6.351101370552828307e+00
1.616176050300085620e+01,7.145622923309591812e+00
1.618176621891969091e+01,6.055473856614034034e+00
1.620177193483852562e+01,5.669041833545463760e+00
1.622177765075736033e+01,5.947606014214205317e+00
1.624178336667619504e+01,5.278757783528206460e+00
1.626178908259502620e+01,5.803634915746524570e+00
1.628179479851386091e+01,5.294501526765395205e+00
1.630180051443269562e+01,4.767780259528285214e+00
1.632180623035153033e+01,4.579811634753420790e+00
1.634181194627036149e+01,3.835824013650161568e+00
1.636181766218919620e+01,5.039247642433752006e+00
1.638182337810803091e+01,4.543522621820228480e+00
1.640182909402686562e+01,4.131646129130359668e+00
1.642183480994570033e+01,4.080926965783136851e+00
1.644184052586453504e+01,5.022676021780402067e+00
1.646184624178336620e+01,4.585930753094462631e+00
1.648185195770220091e+01,4.451928229375884172e+00
1.650185767362103562e+01,4.034157889201647862e+00
1.652186338953986677e+01,3.395016416685319172e+00
1.654186910545870148e+01,3.801028948944604302e+00
1.656187482137753619e+01,4.601378305831111071e+00
1.658188053729637090e+01,4.832857769252653313e+00
1.660188625321520561e+01,4.008959675378871879e+00
1.662189196913404032e+01,4.230243336368464391e+00
1.664189768505287148e+01,4.082868212303829125e+00
1.666190340097170619e+01,4.139681263370757591e+00
1.668190911689054090e+01,3.639988253183727984e+00
1.670191483280937561e+01,4.251509566348866898e+00
1.672192054872820677e+01,4.567908343035641749e+00
1.674192626464704148e+01,4.830287122902413799e+00
1.676193198056587619e+01,4.240156781537465669e+00
1.678193769648471090e+01,3.560000241685917999e+00
1.680194341240354561e+01,4.785422210457186409e+00
1.682194912832238032e+01,3.761631653269771114e+00
1.684195484424121148e+01,4.629802373873454613e+00
1.686196056016004619e+01,3.835672220851909842e+00
1.688196627607888090e+01,4.421346508751628157e+00
1.690197199199771205e+01,4.405594997531520285e+00
1.692197770791654676e+01,4.353747199205827201e+00
1.694198342383538147e+01,4.552972496332767349e+00
1.696198913975421618e+01,4.681227253032306024e+00
1.698199485567305089e+01,3.702069625476069437e+00
1.700200057159188560e+01,4.715039230237842105e+00
1.702200628751071676e+01,4.091525017434264555e+00
1.704201200342955147e+01,3.948056253021015927e+00
1.706201771934838618e+01,4.085531205044484082e+00
1.708202343526722089e+01,3.854278761095464745e+00
1.710202915118605205e+01,4.448333432731224946e+00
1.712203486710488676e+01,3.888015964571860383e+00
1.714204058302372147e+01,4.338051067187851828e+00
1.716204629894255618e+01,4.635919232703166415e+00
1.718205201486139089e+01,4.805692459370412450e+00
1.720205773078022204e+01,3.937056306804977091e+00
1.722206344669905675e+01,3.408852766909861387e+00
1.724206916261789146e+01,4.012398596093332159e+00
1.726207487853672617e+01,3.798397407254293867e+00
1.728208059445555733e+01,4.513295455607201134e+00
1.730208631037439204e+01,3.790245365519548493e+00
1.732209202629322675e+01,3.920984522940678119e+00
1.734209774221206146e+01,3.790544967622569317e+00
1.736210345813089617e+01,3.956326524765942487e+00
1.738210917404973088e+01,3.113984614522122829e+00
1.740211488996856204e+01,3.997833478363929327e+00
1.742212060588739675e+01,3.808590792085784660e+00
1.744212632180623146e+01,3.415050431211926529e+00
1.746213203772506262e+01,3.917395149477351790e+00
1.748213775364389733e+01,4.318208119576364190e+00
1.750214346956273204e+01,4.492427646003996244e+00
1.752214918548156675e+01,3.640346649600711970e+00
1.754215490140040146e+01,4.484445843479323734e+00
1.756216061731923617e+01,4.038036753981858240e+00
1.758216633323806732e+01,3.338531924103024906e+00
1.760217204915690203e+01,3.039427516357566361e+00
1.762217776507573674e+01,3.332222720492590717e+00
1.764218348099457145e+01,3.904019526879602964e+00
1.766218919691340261e+01,3.034588850699695417e+00
1.768219491283223732e+01,3.925324687901228238e+00
1.770220062875107203e+01,3.817033677151409066e+00
1.772220634466990674e+01,3.657605157043940736e+00
1.774221206058874145e+01,4.412386119372662563e+00
1.776221777650757616e+01,4.280799877965813849e+00
1.778222349242640732e+01,3.304099907612138232e+00
1.780222920834524203e+01,3.586889801867285676e+00
1.782223492426407674e+01,3.051474571562232008e+00
1.784224064018290790e+01,3.981909578923936266e+00
1.786224635610174261e+01,4.232648435921730012e+00
1.788225207202057732e+01,3.553259786508635720e+00
1.790225778793941203e+01,3.994355769068289597e+00
1.792226350385824674e+01,3.974008011751835934e+00
1.794226921977708145e+01,3.011405443222516354e+00
1.796227493569591260e+01,3.634206035891289321e+00
