angle,intensity
1.000000000000000000e+01,9.093694926593907724e+01
1.002000571591883471e+01,8.812817222538431849e+01
1.004001143183766764e+01,8.527767791188634305e+01
1.006001714775650235e+01,8.308579799005951827e+01
1.008002286367533529e+01,7.935146423407599059e+01
1.010002857959417000e+01,7.514691091169680703e+01
1.012003429551300293e+01,7.096675547997230638e+01
1.014004001143183764e+01,6.591565996963561247e+01
1.016004572735067235e+01,6.139857999270938649e+01
1.018005144326950528e+01,5.687214868338571705e+01
1.020005715918833999e+01,5.158463084778991714e+01
1.022006287510717293e+01,4.743993381834557965e+01
1.024006859102600764e+01,4.268863073634945238e+01
1.026007430694484057e+01,3.845498904117022221e+01
1.028008002286367528e+01,3.509295788574458186e+01
1.030008573878250999e+01,3.171875611281162577e+01
1.032009145470134293e+01,2.916809712764241524e+01
1.034009717062017764e+01,2.657912060515818098e+01
1.036010288653901057e+01,2.445551920642279953e+01
1.038010860245784528e+01,2.203556712229027781e+01
1.040011431837667999e+01,2.023129190200406313e+01
1.042012003429551292e+01,1.931163237126975218e+01
1.044012575021434763e+01,1.847513862852805033e+01
1.046013146613318057e+01,1.743217855247020509e+01
1.048013718205201528e+01,1.601842332431257887e+01
1.050014289797084821e+01,1.555132908824147009e+01
1.052014861388968292e+01,1.444535181080576969e+01
1.054015432980851585e+01,1.398955038327563472e+01
1.056016004572735056e+01,1.414559002186682690e+01
1.058016576164618527e+01,1.387390504664774227e+01
1.060017147756501821e+01,1.341607945666845580e+01
1.062017719348385292e+01,1.361832907762563849e+01
1.064018290940268585e+01,1.239042362275978348e+01
1.066018862532152056e+01,1.298423833741331634e+01
1.068019434124035527e+01,1.301996760143395804e+01
1.070020005715918820e+01,1.319711417428613842e+01
1.072020577307802292e+01,1.219977307099823705e+01
1.074021148899685585e+01,1.202690320016895242e+01
1.076021720491569056e+01,1.217607640193891605e+01
1.078022292083452349e+01,1.126321496061896710e+01
1.080022863675335820e+01,1.187703481475593037e+01
1.082023435267219291e+01,1.098605701159631565e+01
1.084024006859102585e+01,1.128582545484309918e+01
1.086024578450986056e+01,1.181482623009428323e+01
1.088025150042869349e+01,1.154787764970185648e+01
1.090025721634752820e+01,1.180554077568411131e+01
1.092026293226636113e+01,1.221012299350166685e+01
1.094026864818519584e+01,1.189929194005042667e+01
1.096027436410403055e+01,1.156180209847127571e+01
1.098028008002286349e+01,1.250943348815934364e+01
1.100028579594169820e+01,1.111477993894143168e+01
1.102029151186053113e+01,1.200625827944672963e+01
1.104029722777936584e+01,1.178250380936354702e+01
1.106030294369819877e+01,1.195119809039529990e+01
1.108030865961703348e+01,1.250804458998726787e+01
1.110031437553586819e+01,1.216831299358138452e+01
1.112032009145470113e+01,1.221208038882524960e+01
1.114032580737353584e+01,1.271677302140640897e+01
1.116033152329236877e+01,1.329364543236928320e+01
1.118033723921120348e+01,1.245105285481763246e+01
1.120034295513003642e+01,1.254800793269773962e+01
1.122034867104887113e+01,1.297571576763997214e+01
1.124035438696770584e+01,1.323908021173275706e+01
1.126036010288653877e+01,1.321899739651078320e+01
1.128036581880537348e+01,1.356980179639430872e+01
1.130037153472420641e+01,1.365635025945879555e+01
1.132037725064304112e+01,1.341561338812892856e+01
1.134038296656187583e+01,1.351034942211743939e+01
1.136038868248070877e+01,1.387723831844107636e+01
1.138039439839954348e+01,1.317021893002348953e+01
1.140040011431837641e+01,1.398498177476864512e+01
1.142040583023721112e+01,1.392206982195449072e+01
1.144041154615604405e+01,1.520596113679782135e+01
1.146041726207487876e+01,1.509884916611465044e+01
1.148042297799371170e+01,1.441054557067671738e+01
1.150042869391254641e+01,1.512202835988879279e+01
1.152043440983138112e+01,1.556080577753639460e+01
1.154044012575021405e+01,1.581869285997211350e+01
1.156044584166904876e+01,1.533099148398903111e+01
1.158045155758788169e+01,1.673771291488174029e+01
1.160045727350671640e+01,1.595674555815398321e+01
1.162046298942555111e+01,1.634321802710908500e+01
1.164046870534438405e+01,1.635914100927487880e+01
1.166047442126321876e+01,1.706772015651668539e+01
1.168048013718205169e+01,1.724735830290535432e+01
1.170048585310088640e+01,1.836381837506952053e+01
1.172049156901971934e+01,1.841450366096308500e+01
1.174049728493855405e+01,1.809834352138098978e+01
1.176050300085738698e+01,1.866176098989198806e+01
1.178050871677622169e+01,1.884747645236419444e+01
1.180051443269505640e+01,1.955875117073333058e+01
1.182052014861388933e+01,1.942913341895808088e+01
1.184052586453272404e+01,1.985493601715886314e+01
1.186053158045155698e+01,2.106642637753638780e+01
1.188053729637039169e+01,2.133270728693076279e+01
1.190054301228922640e+01,2.107281805654863405e+01
1.192054872820805933e+01,2.178708684532761808e+01
1.194055444412689404e+01,2.221981953012948807e+01
1.196056016004572697e+01,2.256607183975336994e+01
1.198056587596456168e+01,2.302164126741025996e+01
1.200057159188339639e+01,2.297418807903960314e+01
1.202057730780222933e+01,2.365952472683972729e+01
1.204058302372106226e+01,2.455735152878942174e+01
1.206058873963989697e+01,2.387904002899760059e+01
1.208059445555873168e+01,2.443973989394005741e+01
1.210060017147756461e+01,2.603473080586778465e+01
1.212060588739639932e+01,2.543830710962066632e+01
1.214061160331523226e+01,2.641303268977728180e+01
1.216061731923406697e+01,2.678089907665972191e+01
1.218062303515290168e+01,2.734701397731632255e+01
1.220062875107173461e+01,2.844320176880965079e+01
1.222063446699056932e+01,2.860310088002738382e+01
1.224064018290940226e+01,2.890047466274338461e+01
1.226064589882823697e+01,2.966631649883580124e+01
1.228065161474707168e+01,2.971797929429286356e+01
1.230065733066590461e+01,3.044524430075716381e+01
1.232066304658473754e+01,3.061894158872545546e+01
1.234066876250357225e+01,3.146430067976037748e+01
1.236067447842240696e+01,3.112376833981042168e+01
1.238068019434123990e+01,3.293691634316550676e+01
1.240068591026007461e+01,3.317660893273579603e+01
1.242069162617890754e+01,3.304911380282356248e+01
1.244069734209774225e+01,3.331068980157058235e+01
1.246070305801657696e+01,3.458031913477356056e+01
1.248070877393540989e+01,3.529815293666091236e+01
1.250071448985424460e+01,3.432068174857666065e+01
1.252072020577307754e+01,3.533819981062676874e+01
1.254072592169191225e+01,3.566756764872255303e+01
1.256073163761074696e+01,3.633232624827036261e+01
1.258073735352957989e+01,3.645573032978006722e+01
1.260074306944841460e+01,3.669131285822395228e+01
1.262074878536724754e+01,3.599393514836100394e+01
1.264075450128608225e+01,3.654161493517734982e+01
1.266076021720491518e+01,3.682215020169947195e+01
1.268076593312374989e+01,3.683192645543487487e+01
1.270077164904258282e+01,3.656142746874569838e+01
1.272077736496141753e+01,3.758673857875949409e+01
1.274078308088025224e+01,3.669799862386948774e+01
1.276078879679908518e+01,3.717807663047913280e+01
1.278079451271791989e+01,3.710718566487747694e+01
1.280080022863675282e+01,3.658887922692110806e+01
1.282080594455558753e+01,3.672393990640988903e+01
1.284081166047442224e+01,3.515952470116998541e+01
1.286081737639325517e+01,3.586655300783722566e+01
1.288082309231208988e+01,3.539182701301698586e+01
1.290082880823092282e+01,3.509080994147889498e+01
1.292083452414975753e+01,3.500274352040526082e+01
1.294084024006859224e+01,3.541931224219747065e+01
1.296084595598742517e+01,3.507344700551956151e+01
1.298085167190625810e+01,3.544783901858761510e+01
1.300085738782509281e+01,3.552518281047137805e+01
1.302086310374392752e+01,3.583923018224591317e+01
1.304086881966276046e+01,3.577982324793524072e+01
1.306087453558159517e+01,3.673336257179381903e+01
1.308088025150042810e+01,3.585606472233756392e+01
1.310088596741926281e+01,3.652496915076004314e+01
1.312089168333809752e+01,3.713255490168428707e+01
1.314089739925693046e+01,3.685670481117072228e+01
1.316090311517576517e+01,3.682277947826726461e+01
1.318090883109459810e+01,3.766369831717958050e+01
1.320091454701343281e+01,3.833771801974813798e+01
1.322092026293226752e+01,3.770093031831591190e+01
1.324092597885110045e+01,3.743569929408943153e+01
1.326093169476993339e+01,3.698332983088755554e+01
1.328093741068876810e+01,3.760080475154963153e+01
1.330094312660760281e+01,3.663645517720391354e+01
1.332094884252643574e+01,3.736561064777620800e+01
1.334095455844527045e+01,3.616973233811793165e+01
1.336096027436410338e+01,3.610401531851232448e+01
1.338096599028293809e+01,3.483552707734155263e+01
1.340097170620177280e+01,3.408099448075849125e+01
1.342097742212060574e+01,3.408200539494466597e+01
1.344098313803944045e+01,3.325243023306900625e+01
1.346098885395827338e+01,3.208611878970388176e+01
1.348099456987710809e+01,3.143803764629887709e+01
1.350100028579594280e+01,3.000827001552091389e+01
1.352100600171477573e+01,2.903130953202144582e+01
1.354101171763361044e+01,2.770130788920825182e+01
1.356101743355244338e+01,2.667803410368847494e+01
1.358102314947127809e+01,2.707478358326265067e+01
1.360102886539011102e+01,2.561519620086987459e+01
1.362103458130894573e+01,2.444969592055465668e+01
1.364104029722777867e+01,2.505461941471725140e+01
1.366104601314661338e+01,2.405303830513903662e+01
1.368105172906544809e+01,2.473215081141794514e+01
1.370105744498428102e+01,2.325679277732805872e+01
1.372106316090311573e+01,2.425518680747570244e+01
1.374106887682194866e+01,2.360472933551484687e+01
1.376107459274078337e+01,2.316996071838509863e+01
1.378108030865961808e+01,2.397879899625781874e+01
1.380108602457845102e+01,2.402460128303660980e+01
1.382109174049728573e+01,2.414050107398261247e+01
1.384109745641611866e+01,2.408882642499446192e+01
1.386110317233495337e+01,2.389953492600508866e+01
1.388110888825378808e+01,2.412746592344026908e+01
1.390111460417262101e+01,2.367145050562736941e+01
1.392112032009145395e+01,2.348746774176448326e+01
1.394112603601028866e+01,2.407144266075395578e+01
1.396113175192912337e+01,2.405177058869539408e+01
1.398113746784795630e+01,2.354078147560542078e+01
1.400114318376679101e+01,2.352554130157074752e+01
1.402114889968562395e+01,2.295167445883480895e+01
1.404115461560445866e+01,2.248290729315270653e+01
1.406116033152329337e+01,2.224561764435014410e+01
1.408116604744212630e+01,2.191018529916008006e+01
1.410117176336095923e+01,2.144502611190677044e+01
1.412117747927979394e+01,2.182064976824169378e+01
1.414118319519862865e+01,2.038414723655666094e+01
1.416118891111746336e+01,2.029221965310712150e+01
1.418119462703629630e+01,1.925031528950140114e+01
1.420120034295512923e+01,1.917661364959776193e+01
1.422120605887396394e+01,1.804106215651818701e+01
1.424121177479279865e+01,1.811423733559433202e+01
1.426121749071163336e+01,1.720254473456002486e+01
1.428122320663046629e+01,1.672478190396415698e+01
1.430122892254929923e+01,1.616440844055906823e+01
1.432123463846813394e+01,1.565432275772956672e+01
1.434124035438696865e+01,1.608153655270077564e+01
1.436124607030580158e+01,1.612824029674000670e+01
1.438125178622463629e+01,1.516572841260182614e+01
1.440125750214346922e+01,1.571579667417154269e+01
1.442126321806230393e+01,1.535806361633117589e+01
1.444126893398113864e+01,1.554545309899061856e+01
1.446127464989997158e+01,1.524351433119204557e+01
1.448128036581880451e+01,1.547001173481056213e+01
1.450128608173763922e+01,1.467701770955507712e+01
1.452129179765647393e+01,1.501868965213705209e+01
1.454129751357530864e+01,1.488165823410028565e+01
1.456130322949414158e+01,1.577729392210021864e+01
1.458130894541297451e+01,1.606071688958820687e+01
1.460131466133180922e+01,1.612192328703599031e+01
1.462132037725064393e+01,1.587633700978722828e+01
1.464132609316947686e+01,1.636037196565674989e+01
1.466133180908831157e+01,1.707086335513970354e+01
1.468133752500714451e+01,1.729361035041952377e+01
1.470134324092597922e+01,1.729393077129390122e+01
1.472134895684481393e+01,1.813867381220152097e+01
1.474135467276364686e+01,1.842040288791553948e+01
1.476136038868247979e+01,1.863958071017541229e+01
1.478136610460131450e+01,1.883149884050087763e+01
1.480137182052014921e+01,1.916292860175921930e+01
1.482137753643898392e+01,1.939984563649159810e+01
1.484138325235781686e+01,2.048166992534809339e+01
1.486138896827664979e+01,2.074678143700571198e+01
1.488139468419548450e+01,2.091042474593777101e+01
1.490140040011431921e+01,2.165214726723965910e+01
1.492140611603315392e+01,2.197582795210185225e+01
1.494141183195198685e+01,2.243065074161189187e+01
1.496141754787081979e+01,2.351429749293156490e+01
1.498142326378965450e+01,2.325582822320399856e+01
1.500142897970848921e+01,2.381202337639020783e+01
1.502143469562732214e+01,2.475543130034267847e+01
1.504144041154615508e+01,2.484501425171944078e+01
1.506144612746498979e+01,2.626910555308936424e+01
1.508145184338382450e+01,2.685272526682965832e+01
1.510145755930265921e+01,2.671114195817282067e+01
1.512146327522149214e+01,2.751845100050379855e+01
1.514146899114032507e+01,2.791226183989669352e+01
1.516147470705915978e+01,2.885620553418023704e+01
1.518148042297799449e+01,2.998683777276337281e+01
1.520148613889682920e+01,3.030215796566898590e+01
1.522149185481566214e+01,3.055287022405619979e+01
1.524149757073449507e+01,3.111544027477101082e+01
1.526150328665332978e+01,3.120054112135414925e+01
1.528150900257216449e+01,3.262088516755513012e+01
1.530151471849099742e+01,3.294527703634421556e+01
1.532152043440983036e+01,3.351583421984533118e+01
1.534152615032866507e+01,3.370456954303008956e+01
1.536153186624749978e+01,3.298891670633086193e+01
1.538153758216633449e+01,3.393956975017395905e+01
1.540154329808516742e+01,3.353698942663328353e+01
1.542154901400400036e+01,3.366650585766491588e+01
1.544155472992283507e+01,3.349699150362877731e+01
1.546156044584166978e+01,3.434085855828378442e+01
1.548156616176050449e+01,3.365132318109249354e+01
1.550157187767933742e+01,3.298728393999753905e+01
1.552157759359817035e+01,3.201211580675726509e+01
1.554158330951700506e+01,3.188733499134223592e+01
1.556158902543583977e+01,3.188233882070694847e+01
1.558159474135467271e+01,3.124293999743187555e+01
1.560160045727350742e+01,2.980882800303885460e+01
1.562160617319234035e+01,2.901041480925807292e+01
1.564161188911117506e+01,2.856565342822303677e+01
1.566161760503000977e+01,2.663361060643065414e+01
1.568162332094884270e+01,2.594030786259205712e+01
1.570162903686767564e+01,2.655933442510629661e+01
1.572163475278651035e+01,2.481243151301770666e+01
1.574164046870534506e+01,2.449072731027797545e+01
1.576164618462417977e+01,2.371769999793760064e+01
1.578165190054301270e+01,2.449439666781984926e+01
1.580165761646184563e+01,2.413598128611438653e+01
1.582166333238068034e+01,2.441648914274506410e+01
1.584166904829951505e+01,2.449820923776457704e+01
1.586167476421834799e+01,2.390256232583963936e+01
1.588168048013718270e+01,2.383923150942523606e+01
1.590168619605601563e+01,2.521191194082402376e+01
1.592169191197485034e+01,2.558374461719935056e+01
1.594169762789368505e+01,2.644341659296866709e+01
1.596170334381251799e+01,2.594762433037245231e+01
1.598170905973135092e+01,2.642840449414052273e+01
1.600171477565018563e+01,2.712596185982289398e+01
1.602172049156902034e+01,2.797627343729625693e+01
1.604172620748785505e+01,2.799475652977746876e+01
1.606173192340668976e+01,2.836698399409857174e+01
1.608173763932552092e+01,3.011806637767801220e+01
1.610174335524435563e+01,2.975234567694681687e+01
1.612174907116319034e+01,3.080803191747344627e+01
1.614175478708202505e+01,3.189350375510515079e+01
1.616176050300085620e+01,3.282360775296707800e+01
1.618176621891969091e+01,3.347084037110923305e+01
1.620177193483852562e+01,3.444334444406169382e+01
1.622177765075736033e+01,3.577327405586532905e+01
1.624178336667619504e+01,3.698082365750212830e+01
1.626178908259502620e+01,3.704880740653814541e+01
1.628179479851386091e+01,3.813460951142542399e+01
1.630180051443269562e+01,3.892346301131807706e+01
1.632180623035153033e+01,3.998412815184963165e+01
1.634181194627036149e+01,4.095867210885678844e+01
1.636181766218919620e+01,4.163163257596492883e+01
1.638182337810803091e+01,4.359638730396076056e+01
1.640182909402686562e+01,4.399693407597673911e+01
1.642183480994570033e+01,4.553131687275619299e+01
1.644184052586453504e+01,4.598425787382164032e+01
1.646184624178336620e+01,4.695232798120130724e+01
1.648185195770220091e+01,4.672845448693557557e+01
1.650185767362103562e+01,4.799326291700288039e+01
1.652186338953986677e+01,4.848617846076041360e+01
1.654186910545870148e+01,4.841131321786301100e+01
1.656187482137753619e+01,4.896666695989807749e+01
1.658188053729637090e+01,4.891285092959722647e+01
1.660188625321520561e+01,4.946414937133845058e+01
1.662189196913404032e+01,4.850664825561441518e+01
1.664189768505287148e+01,4.784035957948408679e+01
1.666190340097170619e+01,4.713609798526728412e+01
1.668190911689054090e+01,4.683214972844211843e+01
1.670191483280937561e+01,4.513232443270572247e+01
1.672192054872820677e+01,4.437286252085863225e+01
1.674192626464704148e+01,4.389810494399100094e+01
1.676193198056587619e+01,4.258456472637382717e+01
1.678193769648471090e+01,4.085168860465198293e+01
1.680194341240354561e+01,3.977515619077671261e+01
1.682194912832238032e+01,3.902168171546884423e+01
1.684195484424121148e+01,3.822724629909073712e+01
1.686196056016004619e+01,3.682255464605167106e+01
1.688196627607888090e+01,3.598558723042575735e+01
1.690197199199771205e+01,3.570831192823056455e+01
1.692197770791654676e+01,3.529718309443283175e+01
1.694198342383538147e+01,3.452269423888438382e+01
1.696198913975421618e+01,3.567808328921178429e+01
1.698199485567305089e+01,3.425793202607898991e+01
1.700200057159188560e+01,3.468587266002910496e+01
1.702200628751071676e+01,3.618870902356989916e+01
1.704201200342955147e+01,3.528389695731492992e+01
1.706201771934838618e+01,3.589764828106950034e+01
1.708202343526722089e+01,3.718807533697363965e+01
1.710202915118605205e+01,3.743183126425353890e+01
1.712203486710488676e+01,3.863154485755782730e+01
1.714204058302372147e+01,3.936273866027696045e+01
1.716204629894255618e+01,4.034417492574439734e+01
1.718205201486139089e+01,4.135434368559751306e+01
1.720205773078022204e+01,4.200934513004750670e+01
1.722206344669905675e+01,4.344677829860350471e+01
1.724206916261789146e+01,4.386445729294143803e+01
1.726207487853672617e+01,4.444656366914586698e+01
1.728208059445555733e+01,4.639284170908673843e+01
1.730208631037439204e+01,4.712118065969830383e+01
1.732209202629322675e+01,4.871957878177040868e+01
1.734209774221206146e+01,4.914032915590682649e+01
1.736210345813089617e+01,5.029184854950142380e+01
1.738210917404973088e+01,5.139300661574056051e+01
1.740211488996856204e+01,5.337326236793236234e+01
1.742212060588739675e+01,5.406916566952130410e+01
1.744212632180623146e+01,5.456192216130601480e+01
1.746213203772506262e+01,5.591789314794364429e+01
1.748213775364389733e+01,5.625460763289262900e+01
1.750214346956273204e+01,5.714316667115448922e+01
1.752214918548156675e+01,5.711727903470416834e+01
1.754215490140040146e+01,5.808889146906422951e+01
1.756216061731923617e+01,5.781209337186011510e+01
1.758216633323806732e+01,5.823978766596026446e+01
1.760217204915690203e+01,5.781707208997028147e+01
1.762217776507573674e+01,5.682426946890335984e+01
1.764218348099457145e+01,5.633143559599162842e+01
1.766218919691340261e+01,5.530179206177550100e+01
1.768219491283223732e+01,5.494201806539815891e+01
1.770220062875107203e+01,5.298985790839155641e+01
1.772220634466990674e+01,5.145059167436129144e+01
1.774221206058874145e+01,4.978895132989037364e+01
1.776221777650757616e+01,4.772792794507336112e+01
1.778222349242640732e+01,4.511791948470212077e+01
1.780222920834524203e+01,4.287632768689172735e+01
1.782223492426407674e+01,3.950309254900871281e+01
1.784224064018290790e+01,3.696564419656569100e+01
1.786224635610174261e+01,3.468072203970873346e+01
1.788225207202057732e+01,3.294682429844228011e+01
1.790225778793941203e+01,3.024654803649978874e+01
1.792226350385824674e+01,2.748369569260331957e+01
1.794226921977708145e+01,2.610147509003272148e+01
1.796227493569591260e+01,2.399361925206264701e+01
