angle,intensity
1.000000000000000000e+01,9.837888545600827683e+01
1.002000571591883471e+01,9.895750384198849758e+01
1.004001143183766764e+01,9.856442466483407827e+01
1.006001714775650235e+01,9.877904743870439574e+01
1.008002286367533529e+01,9.947729313871013801e+01
1.010002857959417000e+01,9.945370473439706416e+01
1.012003429551300293e+01,9.876523169672510960e+01
1.014004001143183764e+01,9.890249383218291257e+01
1.016004572735067235e+01,9.824139591132563964e+01
1.018005144326950528e+01,9.649050350581613600e+01
1.020005715918833999e+01,9.590696897601063142e+01
1.022006287510717293e+01,9.434970863070431335e+01
1.024006859102600764e+01,9.135575316320080219e+01
1.026007430694484057e+01,8.865197368353690877e+01
1.028008002286367528e+01,8.575056474405076301e+01
1.030008573878250999e+01,8.197137462677426356e+01
1.032009145470134293e+01,7.772428794611357716e+01
1.034009717062017764e+01,7.264993969112444461e+01
1.036010288653901057e+01,6.734827141181091292e+01
1.038010860245784528e+01,6.203730782389136067e+01
1.040011431837667999e+01,5.612201238868109954e+01
1.042012003429551292e+01,5.099044217689845482e+01
1.044012575021434763e+01,4.463408875083728589e+01
1.046013146613318057e+01,3.871039602448193762e+01
1.048013718205201528e+01,3.463571374788838853e+01
1.050014289797084821e+01,3.003167726058846654e+01
1.052014861388968292e+01,2.538670966476775703e+01
1.054015432980851585e+01,2.205308482777203949e+01
1.056016004572735056e+01,1.861918569475331964e+01
1.058016576164618527e+01,1.630923588245203604e+01
1.060017147756501821e+01,1.429512245488002087e+01
1.062017719348385292e+01,1.263046023658001005e+01
1.064018290940268585e+01,1.121438218943515963e+01
1.066018862532152056e+01,1.027380201642309565e+01
1.068019434124035527e+01,9.230591074979809463e+00
1.070020005715918820e+01,8.366129805008419851e+00
1.072020577307802292e+01,8.664663479860681861e+00
1.074021148899685585e+01,8.227871701526314752e+00
1.076021720491569056e+01,8.128088193393882221e+00
1.078022292083452349e+01,7.220560340694344603e+00
1.080022863675335820e+01,7.192421643507641349e+00
1.082023435267219291e+01,6.500994621361788184e+00
1.084024006859102585e+01,7.207152958946545951e+00
1.086024578450986056e+01,6.474020388582790275e+00
1.088025150042869349e+01,6.229713840067752528e+00
1.090025721634752820e+01,5.652346827852108291e+00
1.092026293226636113e+01,6.704591075722808213e+00
1.094026864818519584e+01,6.213327974234260864e+00
1.096027436410403055e+01,6.392438104966042367e+00
1.098028008002286349e+01,5.784239981861084345e+00
1.100028579594169820e+01,6.287873603740162132e+00
1.102029151186053113e+01,6.378166751644568144e+00
1.104029722777936584e+01,5.992840555648149881e+00
1.106030294369819877e+01,6.460388606240078602e+00
1.108030865961703348e+01,5.647358500620765831e+00
1.110031437553586819e+01,6.362529406911505703e+00
1.112032009145470113e+01,6.414126023926614906e+00
1.114032580737353584e+01,5.537307146743336794e+00
1.116033152329236877e+01,5.472847637351698324e+00
1.118033723921120348e+01,5.778317002277313819e+00
1.120034295513003642e+01,5.491344705017406014e+00
1.122034867104887113e+01,5.380672679337227926e+00
1.124035438696770584e+01,6.085354439868931209e+00
1.126036010288653877e+01,5.834619814604004695e+00
1.128036581880537348e+01,5.454477010917963220e+00
1.130037153472420641e+01,6.840561622001966491e+00
1.132037725064304112e+01,5.345310785186818237e+00
1.134038296656187583e+01,5.874277947214141982e+00
1.136038868248070877e+01,5.808819953181757256e+00
1.138039439839954348e+01,6.247664636972737995e+00
1.140040011431837641e+01,6.080127218153638324e+00
1.142040583023721112e+01,6.395087930873945226e+00
1.144041154615604405e+01,7.181222599733947831e+00
1.146041726207487876e+01,6.593158933470432359e+00
1.148042297799371170e+01,6.657492210601525073e+00
1.150042869391254641e+01,6.997789856857789204e+00
1.152043440983138112e+01,6.411554204773675991e+00
1.154044012575021405e+01,6.041105007773361457e+00
1.156044584166904876e+01,6.578852303135613866e+00
1.158045155758788169e+01,6.917438286244857792e+00
1.160045727350671640e+01,6.610299866589263829e+00
1.162046298942555111e+01,6.291335818076065678e+00
1.164046870534438405e+01,6.258059524354267822e+00
1.166047442126321876e+01,6.478964110781517682e+00
1.168048013718205169e+01,6.754554335992223102e+00
1.170048585310088640e+01,7.429337858335273381e+00
1.172049156901971934e+01,7.469554090579647365e+00
1.174049728493855405e+01,7.422029856445245599e+00
1.176050300085738698e+01,7.690198395257516140e+00
1.178050871677622169e+01,7.492230157598957163e+00
1.180051443269505640e+01,6.903703154437801359e+00
1.182052014861388933e+01,8.001955649793385916e+00
1.184052586453272404e+01,7.704874654774296339e+00
1.186053158045155698e+01,8.075202487156188269e+00
1.188053729637039169e+01,7.165281840457658369e+00
1.190054301228922640e+01,7.388889662408850256e+00
1.192054872820805933e+01,7.245306042484259024e+00
1.194055444412689404e+01,7.610725775977552843e+00
1.196056016004572697e+01,8.368329308414480749e+00
1.198056587596456168e+01,7.820641170768886319e+00
1.200057159188339639e+01,8.064269329351514415e+00
1.202057730780222933e+01,8.834688906903721772e+00
1.204058302372106226e+01,8.654966661781191561e+00
1.206058873963989697e+01,8.997693772957008562e+00
1.208059445555873168e+01,8.275649793778796948e+00
1.210060017147756461e+01,9.083785803543221959e+00
1.212060588739639932e+01,8.045828026352410234e+00
1.214061160331523226e+01,8.380146942008718014e+00
1.216061731923406697e+01,8.726259111176499772e+00
1.218062303515290168e+01,8.716997160352164542e+00
1.220062875107173461e+01,9.775733786496980215e+00
1.222063446699056932e+01,9.396387446291321055e+00
1.224064018290940226e+01,9.702216289803576643e+00
1.226064589882823697e+01,9.767225793343097706e+00
1.228065161474707168e+01,9.692985511983682301e+00
1.230065733066590461e+01,9.960858581762821018e+00
1.232066304658473754e+01,1.052224379460044901e+01
1.234066876250357225e+01,9.554954205712288484e+00
1.236067447842240696e+01,1.016180928967064290e+01
1.238068019434123990e+01,1.044499258390596097e+01
1.240068591026007461e+01,1.007692905543271777e+01
1.242069162617890754e+01,9.623903559882649006e+00
1.244069734209774225e+01,1.012411995545461707e+01
1.246070305801657696e+01,9.738083414022156603e+00
1.248070877393540989e+01,9.406489466496617879e+00
1.250071448985424460e+01,1.048291372535776134e+01
1.252072020577307754e+01,9.285366602347995268e+00
1.254072592169191225e+01,9.944029651450655649e+00
1.256073163761074696e+01,9.249484150707178998e+00
1.258073735352957989e+01,8.920001731382175336e+00
1.260074306944841460e+01,7.870376877704369889e+00
1.262074878536724754e+01,8.016000126848096485e+00
1.264075450128608225e+01,8.169709466948958720e+00
1.266076021720491518e+01,7.354144701710780829e+00
1.268076593312374989e+01,6.740386776284607251e+00
1.270077164904258282e+01,7.460056546594778126e+00
1.272077736496141753e+01,7.379108280903488470e+00
1.274078308088025224e+01,6.020087602752593803e+00
1.276078879679908518e+01,5.472347080888512849e+00
1.278079451271791989e+01,5.221375236368841932e+00
1.280080022863675282e+01,4.283378961876288749e+00
1.282080594455558753e+01,4.881962800433131022e+00
1.284081166047442224e+01,4.901244735162334720e+00
1.286081737639325517e+01,4.107721556454045242e+00
1.288082309231208988e+01,4.359604121485202377e+00
1.290082880823092282e+01,4.273010706084427568e+00
1.292083452414975753e+01,3.868715666868004721e+00
1.294084024006859224e+01,4.073566160834380057e+00
1.296084595598742517e+01,4.120314848758817483e+00
1.298085167190625810e+01,4.578775457081057709e+00
1.300085738782509281e+01,3.787652048536308769e+00
1.302086310374392752e+01,3.081977508964549806e+00
1.304086881966276046e+01,4.060388840775260633e+00
1.306087453558159517e+01,4.096113056472633573e+00
1.308088025150042810e+01,3.942056592583593755e+00
1.310088596741926281e+01,3.377801628703264392e+00
1.312089168333809752e+01,3.831565815636298389e+00
1.314089739925693046e+01,4.027757117014331811e+00
1.316090311517576517e+01,3.775252826911014381e+00
1.318090883109459810e+01,4.021197169350609890e+00
1.320091454701343281e+01,2.804578767996805055e+00
1.322092026293226752e+01,3.788980792401932973e+00
1.324092597885110045e+01,3.531120969047651492e+00
1.326093169476993339e+01,3.763779274449472023e+00
1.328093741068876810e+01,3.972278489614340380e+00
1.330094312660760281e+01,4.143957575791317183e+00
1.332094884252643574e+01,4.169501932608732808e+00
1.334095455844527045e+01,3.615278195056690791e+00
1.336096027436410338e+01,3.550025789268945964e+00
1.338096599028293809e+01,3.600710547272799378e+00
1.340097170620177280e+01,4.475950033031652175e+00
1.342097742212060574e+01,4.187222971862238019e+00
1.344098313803944045e+01,2.952668485862169234e+00
1.346098885395827338e+01,3.761112545815076480e+00
1.348099456987710809e+01,3.988160298805610182e+00
1.350100028579594280e+01,3.893145604168642748e+00
1.352100600171477573e+01,4.050284582941110045e+00
1.354101171763361044e+01,2.902114300477322217e+00
1.356101743355244338e+01,3.178664387285909942e+00
1.358102314947127809e+01,3.350166429518287359e+00
1.360102886539011102e+01,3.540627532821992496e+00
1.362103458130894573e+01,3.580415275393575847e+00
1.364104029722777867e+01,3.740794006309336339e+00
1.366104601314661338e+01,3.498065057705415093e+00
1.368105172906544809e+01,3.345906967451775849e+00
1.370105744498428102e+01,2.868762321151231198e+00
1.372106316090311573e+01,3.528607605274308501e+00
1.374106887682194866e+01,3.989776999371195121e+00
1.376107459274078337e+01,4.230867324036748478e+00
1.378108030865961808e+01,3.685861074268154347e+00
1.380108602457845102e+01,3.037726603971144357e+00
1.382109174049728573e+01,3.741242424095272412e+00
1.384109745641611866e+01,2.975139422645571852e+00
1.386110317233495337e+01,3.965986392866536203e+00
1.388110888825378808e+01,2.840150425933195777e+00
1.390111460417262101e+01,3.026746479547665736e+00
1.392112032009145395e+01,3.612994498596359350e+00
1.394112603601028866e+01,3.319073927698334980e+00
1.396113175192912337e+01,4.230789320238879547e+00
1.398113746784795630e+01,3.576251536209444026e+00
1.400114318376679101e+01,3.946354433445198318e+00
1.402114889968562395e+01,4.065222486099058230e+00
1.404115461560445866e+01,3.481031643530227093e+00
1.406116033152329337e+01,3.514758404847528439e+00
1.408116604744212630e+01,3.119915215147199383e+00
1.410117176336095923e+01,3.334115014777870201e+00
1.412117747927979394e+01,3.630291421396993901e+00
1.414118319519862865e+01,4.017555321102773469e+00
1.416118891111746336e+01,2.800669440612468808e+00
1.418119462703629630e+01,3.385828449495271730e+00
1.420120034295512923e+01,2.951254325645713994e+00
1.422120605887396394e+01,3.979775399306467953e+00
1.424121177479279865e+01,3.576765880533274267e+00
1.426121749071163336e+01,3.857587968641638110e+00
1.428122320663046629e+01,3.688754163948650522e+00
1.430122892254929923e+01,3.624250757346820784e+00
1.432123463846813394e+01,3.311232146759114592e+00
1.434124035438696865e+01,3.825528692223151062e+00
1.436124607030580158e+01,3.590330441954662000e+00
1.438125178622463629e+01,3.645859220187710914e+00
1.440125750214346922e+01,3.759870650892837229e+00
1.442126321806230393e+01,3.358645907180423329e+00
1.444126893398113864e+01,3.011632866222351712e+00
1.446127464989997158e+01,3.236875727612433806e+00
1.448128036581880451e+01,4.458241395882534874e+00
1.450128608173763922e+01,3.176913711597727286e+00
1.452129179765647393e+01,3.798811184348619197e+00
1.454129751357530864e+01,3.024512781422985519e+00
1.456130322949414158e+01,3.514581511415860504e+00
1.458130894541297451e+01,4.022281761438134318e+00
1.460131466133180922e+01,3.779844167725390669e+00
1.462132037725064393e+01,3.425020536858670361e+00
1.464132609316947686e+01,4.099454334349428741e+00
1.466133180908831157e+01,3.105080970430156739e+00
1.468133752500714451e+01,3.346466526468089508e+00
1.470134324092597922e+01,3.775495798057580732e+00
1.472134895684481393e+01,3.556162402506422904e+00
1.474135467276364686e+01,3.802257542227859499e+00
1.476136038868247979e+01,3.010195424121294039e+00
1.478136610460131450e+01,3.378949753969255010e+00
1.480137182052014921e+01,4.107147227128737477e+00
1.482137753643898392e+01,3.193653843345534149e+00
1.484138325235781686e+01,3.707000436200029725e+00
1.486138896827664979e+01,3.186702199757445619e+00
1.488139468419548450e+01,3.843258951948215429e+00
1.490140040011431921e+01,3.306650324181625411e+00
1.492140611603315392e+01,4.121662660742247297e+00
1.494141183195198685e+01,3.296806376293480056e+00
1.496141754787081979e+01,3.730680798622114214e+00
1.498142326378965450e+01,3.744048700660900231e+00
1.500142897970848921e+01,3.805138138624129418e+00
1.502143469562732214e+01,3.409290414286576087e+00
1.504144041154615508e+01,4.328651750789249242e+00
1.506144612746498979e+01,3.577253345080301461e+00
1.508145184338382450e+01,3.697527166829206458e+00
1.510145755930265921e+01,4.204946803199179683e+00
1.512146327522149214e+01,3.931463024847749566e+00
1.514146899114032507e+01,4.048469006456911323e+00
1.516147470705915978e+01,3.229005691026363145e+00
1.518148042297799449e+01,3.953006668445014249e+00
1.520148613889682920e+01,4.159836832875656754e+00
1.522149185481566214e+01,4.619703048264900858e+00
1.524149757073449507e+01,4.419787363290132554e+00
1.526150328665332978e+01,4.469467931034355246e+00
1.528150900257216449e+01,4.496719792875023991e+00
1.530151471849099742e+01,3.887115159386353547e+00
1.532152043440983036e+01,4.336008379350589692e+00
1.534152615032866507e+01,3.924897554809639644e+00
1.536153186624749978e+01,4.490802418777946059e+00
1.538153758216633449e+01,5.118374805670148575e+00
1.540154329808516742e+01,4.106128518952982809e+00
1.542154901400400036e+01,4.207312483744317433e+00
1.544155472992283507e+01,4.195810465677419998e+00
1.546156044584166978e+01,4.745542015827465931e+00
1.548156616176050449e+01,4.367952187687698995e+00
1.550157187767933742e+01,4.735353311184258729e+00
1.552157759359817035e+01,4.933715412521779697e+00
1.554158330951700506e+01,5.218413389955951942e+00
1.556158902543583977e+01,5.225745924379795682e+00
1.558159474135467271e+01,5.632427668144835309e+00
1.560160045727350742e+01,5.666704725028061773e+00
1.562160617319234035e+01,5.081593030711237802e+00
1.564161188911117506e+01,5.360841186951519788e+00
1.566161760503000977e+01,5.544067900711501906e+00
1.568162332094884270e+01,5.857751254190286971e+00
1.570162903686767564e+01,5.068952197218484557e+00
1.572163475278651035e+01,6.087414544097587310e+00
1.574164046870534506e+01,5.232243788612375823e+00
1.576164618462417977e+01,5.169773425751893470e+00
1.578165190054301270e+01,6.011941883513012286e+00
1.580165761646184563e+01,5.690783739153356890e+00
1.582166333238068034e+01,6.245646874242051894e+00
1.584166904829951505e+01,7.082333802016473001e+00
1.586167476421834799e+01,5.708886911060885083e+00
1.588168048013718270e+01,6.036791580775011212e+00
1.590168619605601563e+01,7.234958031935237344e+00
1.592169191197485034e+01,6.881071540493246985e+00
1.594169762789368505e+01,7.077704537537679030e+00
1.596170334381251799e+01,7.248037580351187614e+00
1.598170905973135092e+01,7.245671947370285970e+00
1.600171477565018563e+01,7.690776679252904202e+00
1.602172049156902034e+01,7.671584708718885537e+00
1.604172620748785505e+01,7.808885020057954485e+00
1.606173192340668976e+01,7.434586334743711333e+00
1.608173763932552092e+01,8.309442554725592345e+00
1.610174335524435563e+01,8.437143142405664875e+00
1.612174907116319034e+01,8.072480379660065708e+00
1.614175478708202505e+01,8.509239052596292652e+00
1.616176050300085620e+01,8.217516468970917032e+00
1.618176621891969091e+01,8.855265384354538583e+00
1.620177193483852562e+01,8.922505705326903680e+00
1.622177765075736033e+01,8.926123804472089418e+00
1.624178336667619504e+01,9.458341802630240380e+00
1.626178908259502620e+01,9.331457945842643653e+00
1.628179479851386091e+01,9.091275611466667073e+00
1.630180051443269562e+01,1.006063259528856335e+01
1.632180623035153033e+01,9.874954669435062726e+00
1.634181194627036149e+01,1.086436886417610914e+01
1.636181766218919620e+01,1.022321103697423439e+01
1.638182337810803091e+01,1.038735920169871108e+01
1.640182909402686562e+01,1.152521245175136855e+01
1.642183480994570033e+01,1.095562958359242955e+01
1.644184052586453504e+01,1.189598126297947189e+01
1.646184624178336620e+01,1.180864653992393087e+01
1.648185195770220091e+01,1.178812046761292009e+01
1.650185767362103562e+01,1.257623086591743622e+01
1.652186338953986677e+01,1.269099461888960256e+01
1.654186910545870148e+01,1.294975778889561546e+01
1.656187482137753619e+01,1.327442155156372117e+01
1.658188053729637090e+01,1.323661075737692627e+01
1.660188625321520561e+01,1.357692247882431147e+01
1.662189196913404032e+01,1.363911562280587475e+01
1.664189768505287148e+01,1.401357222629071231e+01
1.666190340097170619e+01,1.389986646898237765e+01
1.668190911689054090e+01,1.393947374760627689e+01
1.670191483280937561e+01,1.423142277925429511e+01
1.672192054872820677e+01,1.429875628143805599e+01
1.674192626464704148e+01,1.403551761682646770e+01
1.676193198056587619e+01,1.314223145019066052e+01
1.678193769648471090e+01,1.360299272757755773e+01
1.680194341240354561e+01,1.324813338661802931e+01
1.682194912832238032e+01,1.376165115124868166e+01
1.684195484424121148e+01,1.291995059092291598e+01
1.686196056016004619e+01,1.273915454731389119e+01
1.688196627607888090e+01,1.280678902033179867e+01
1.690197199199771205e+01,1.233181291504369170e+01
1.692197770791654676e+01,1.159694701072089984e+01
1.694198342383538147e+01,1.150275154700697655e+01
1.696198913975421618e+01,1.148361046794700968e+01
1.698199485567305089e+01,1.075737312129572842e+01
1.700200057159188560e+01,1.071317709537209417e+01
1.702200628751071676e+01,1.032473145405832327e+01
1.704201200342955147e+01,1.048511961511549551e+01
1.706201771934838618e+01,1.004531220206061448e+01
1.708202343526722089e+01,9.615240728622435284e+00
1.710202915118605205e+01,9.924002191242937698e+00
1.712203486710488676e+01,9.903681701704357465e+00
1.714204058302372147e+01,9.803563634225831436e+00
1.716204629894255618e+01,1.110722602538107040e+01
1.718205201486139089e+01,1.081468838547264966e+01
1.720205773078022204e+01,1.012929359569268684e+01
1.722206344669905675e+01,1.091263753744114595e+01
1.724206916261789146e+01,1.105220471202952304e+01
1.726207487853672617e+01,1.136675508062513984e+01
1.728208059445555733e+01,1.145425262216619267e+01
1.730208631037439204e+01,1.250845221949486685e+01
1.732209202629322675e+01,1.243603609260755505e+01
1.734209774221206146e+01,1.233427133166886946e+01
1.736210345813089617e+01,1.274632380125379250e+01
1.738210917404973088e+01,1.348765546709428875e+01
1.740211488996856204e+01,1.400348428878785967e+01
1.742212060588739675e+01,1.453622470742225126e+01
1.744212632180623146e+01,1.422454213744881102e+01
1.746213203772506262e+01,1.532435811092060618e+01
1.748213775364389733e+01,1.575173350622260671e+01
1.750214346956273204e+01,1.639761582741221702e+01
1.752214918548156675e+01,1.624703552849054233e+01
1.754215490140040146e+01,1.745039813798901562e+01
1.756216061731923617e+01,1.765012557995544995e+01
1.758216633323806732e+01,1.866859875040105265e+01
1.760217204915690203e+01,1.993179475066438044e+01
1.762217776507573674e+01,2.043116601410018163e+01
1.764218348099457145e+01,2.061504398247160452e+01
1.766218919691340261e+01,2.119539102390637453e+01
1.768219491283223732e+01,2.125093850643811777e+01
1.770220062875107203e+01,2.346336351496081818e+01
1.772220634466990674e+01,2.322606528174588192e+01
1.774221206058874145e+01,2.417247074152377451e+01
1.776221777650757616e+01,2.507816344406865028e+01
1.778222349242640732e+01,2.578355848333588085e+01
1.780222920834524203e+01,2.657944505808589852e+01
1.782223492426407674e+01,2.682472789537343516e+01
1.784224064018290790e+01,2.792333311169173271e+01
1.786224635610174261e+01,3.004620420381951362e+01
1.788225207202057732e+01,3.048958741002351047e+01
1.790225778793941203e+01,3.044487292998925909e+01
1.792226350385824674e+01,3.260601729461538412e+01
1.794226921977708145e+01,3.298606026813945391e+01
1.796227493569591260e+01,3.373723448004691505e+01
