angle,intensity
1.000000000000000000e+01,6.629953009051081381e+01
1.002000571591883471e+01,6.517667402501234619e+01
1.004001143183766764e+01,6.490440616861582157e+01
1.006001714775650235e+01,6.403629364853196648e+01
1.008002286367533529e+01,6.317959481440539093e+01
1.010002857959417000e+01,6.200651881823438316e+01
1.012003429551300293e+01,6.040213342701478894e+01
1.014004001143183764e+01,5.942510037601807937e+01
1.016004572735067235e+01,5.722633723938056960e+01
1.018005144326950528e+01,5.553967779096920765e+01
1.020005715918833999e+01,5.461153928195381013e+01
1.022006287510717293e+01,5.257831841067370249e+01
1.024006859102600764e+01,4.999488688936577319e+01
1.026007430694484057e+01,4.750045189379223842e+01
1.028008002286367528e+01,4.452809938608101703e+01
1.030008573878250999e+01,4.266016572286530106e+01
1.032009145470134293e+01,4.083810301567558554e+01
1.034009717062017764e+01,3.812022411828829149e+01
1.036010288653901057e+01,3.641678537967160878e+01
1.038010860245784528e+01,3.314719906987183151e+01
1.040011431837667999e+01,3.152193666666392247e+01
1.042012003429551292e+01,2.991345093811976596e+01
1.044012575021434763e+01,2.779707348475020368e+01
1.046013146613318057e+01,2.589877315289535531e+01
1.048013718205201528e+01,2.515599918635212617e+01
1.050014289797084821e+01,2.368659579412663518e+01
1.052014861388968292e+01,2.248552712179442992e+01
1.054015432980851585e+01,2.072037208288927346e+01
1.056016004572735056e+01,2.048635413720990073e+01
1.058016576164618527e+01,1.933776582877845129e+01
1.060017147756501821e+01,1.786420820351108318e+01
1.062017719348385292e+01,1.751465777293372739e+01
1.064018290940268585e+01,1.599247280894991796e+01
1.066018862532152056e+01,1.539562611462006814e+01
1.068019434124035527e+01,1.583070071312405602e+01
1.070020005715918820e+01,1.500393438393382795e+01
1.072020577307802292e+01,1.395967518609583635e+01
1.074021148899685585e+01,1.334581570792548888e+01
1.076021720491569056e+01,1.326584861836279217e+01
1.078022292083452349e+01,1.299373967973719957e+01
1.080022863675335820e+01,1.271865531383666870e+01
1.082023435267219291e+01,1.303549002888062169e+01
1.084024006859102585e+01,1.238458477293885984e+01
1.086024578450986056e+01,1.164287633245852049e+01
1.088025150042869349e+01,1.120428795420322210e+01
1.090025721634752820e+01,1.109098658191335218e+01
1.092026293226636113e+01,1.115376976507947759e+01
1.094026864818519584e+01,1.091727596881531426e+01
1.096027436410403055e+01,1.035459440838642209e+01
1.098028008002286349e+01,1.051653759622798567e+01
1.100028579594169820e+01,1.024803638380488024e+01
1.102029151186053113e+01,1.047188859106253034e+01
1.104029722777936584e+01,1.039429930674065616e+01
1.106030294369819877e+01,9.543803821366765305e+00
1.108030865961703348e+01,9.655873442542050711e+00
1.110031437553586819e+01,1.001991366743757261e+01
1.112032009145470113e+01,9.748465091140458227e+00
1.114032580737353584e+01,9.427566455044184224e+00
1.116033152329236877e+01,8.718085201511456717e+00
1.118033723921120348e+01,9.122344229657077364e+00
1.120034295513003642e+01,9.597928713928087774e+00
1.122034867104887113e+01,8.774594215659726970e+00
1.124035438696770584e+01,1.003312319946645204e+01
1.126036010288653877e+01,9.140850108218227632e+00
1.128036581880537348e+01,9.239344589973629951e+00
1.130037153472420641e+01,9.335829792116964398e+00
1.132037725064304112e+01,9.484599867742600665e+00
1.134038296656187583e+01,8.889531177477861590e+00
1.136038868248070877e+01,8.940781417391985286e+00
1.138039439839954348e+01,8.969102983086168379e+00
1.140040011431837641e+01,8.668454562777878181e+00
1.142040583023721112e+01,9.604704757947718718e+00
1.144041154615604405e+01,9.421094965650578246e+00
1.146041726207487876e+01,8.563986628514125954e+00
1.148042297799371170e+01,9.037654025843878003e+00
1.150042869391254641e+01,9.445673864152027477e+00
1.152043440983138112e+01,8.644256546287270027e+00
1.154044012575021405e+01,8.873142236665165328e+00
1.156044584166904876e+01,9.872787539492444253e+00
1.158045155758788169e+01,8.586803428403637639e+00
1.160045727350671640e+01,9.225423897257300609e+00
1.162046298942555111e+01,8.970047259374480220e+00
1.164046870534438405e+01,9.048386777348294885e+00
1.166047442126321876e+01,9.266865241960379862e+00
1.168048013718205169e+01,9.637453526529727199e+00
1.170048585310088640e+01,9.816985003511405239e+00
1.172049156901971934e+01,9.227719921841389450e+00
1.174049728493855405e+01,9.379690688079701744e+00
1.176050300085738698e+01,8.860788174241996273e+00
1.178050871677622169e+01,9.936182142540745943e+00
1.180051443269505640e+01,9.082497534354946112e+00
1.182052014861388933e+01,9.028623091625048502e+00
1.184052586453272404e+01,1.049021199653293124e+01
1.186053158045155698e+01,1.038200259917273982e+01
1.188053729637039169e+01,9.645945446221452002e+00
1.190054301228922640e+01,9.799667509840643831e+00
1.192054872820805933e+01,1.072072416674927453e+01
1.194055444412689404e+01,1.005493360089016797e+01
1.196056016004572697e+01,1.048698302219786527e+01
1.198056587596456168e+01,1.028611954079977941e+01
1.200057159188339639e+01,1.010558236016339251e+01
1.202057730780222933e+01,1.047615267725437072e+01
1.204058302372106226e+01,1.064964373031606470e+01
1.206058873963989697e+01,1.052640992671576470e+01
1.208059445555873168e+01,1.108128648717722697e+01
1.210060017147756461e+01,1.014521463396357071e+01
1.212060588739639932e+01,1.099543396108172288e+01
1.214061160331523226e+01,1.128717631262117393e+01
1.216061731923406697e+01,1.174346522866782294e+01
1.218062303515290168e+01,1.088548092944925116e+01
1.220062875107173461e+01,1.150948018350906921e+01
1.222063446699056932e+01,1.175691180070324648e+01
1.224064018290940226e+01,1.252370146430502196e+01
1.226064589882823697e+01,1.233217085454423767e+01
1.228065161474707168e+01,1.206792256947385411e+01
1.230065733066590461e+01,1.203750945331892730e+01
1.232066304658473754e+01,1.145176715599298944e+01
1.234066876250357225e+01,1.195253719942751403e+01
1.236067447842240696e+01,1.236890657625943390e+01
1.238068019434123990e+01,1.337715107699373007e+01
1.240068591026007461e+01,1.242160335904737778e+01
1.242069162617890754e+01,1.238445520804351219e+01
1.244069734209774225e+01,1.331511208436908511e+01
1.246070305801657696e+01,1.303194325375674367e+01
1.248070877393540989e+01,1.309663610339491413e+01
1.250071448985424460e+01,1.266375997114873186e+01
1.252072020577307754e+01,1.356454224555778154e+01
1.254072592169191225e+01,1.339981880277379389e+01
1.256073163761074696e+01,1.274661219102099352e+01
1.258073735352957989e+01,1.291932177229516476e+01
1.260074306944841460e+01,1.316945934141137897e+01
1.262074878536724754e+01,1.360362191207094540e+01
1.264075450128608225e+01,1.337595766255057939e+01
1.266076021720491518e+01,1.317482722822039953e+01
1.268076593312374989e+01,1.254278771228547207e+01
1.270077164904258282e+01,1.324458795329979921e+01
1.272077736496141753e+01,1.343468844234224413e+01
1.274078308088025224e+01,1.239421738267657247e+01
1.276078879679908518e+01,1.172766514611949162e+01
1.278079451271791989e+01,1.260663391696270352e+01
1.280080022863675282e+01,1.207851989661724090e+01
1.282080594455558753e+01,1.120808377103034914e+01
1.284081166047442224e+01,1.088243546014723151e+01
1.286081737639325517e+01,1.133571488202620614e+01
1.288082309231208988e+01,1.099155087934060226e+01
1.290082880823092282e+01,1.044612962004575252e+01
1.292083452414975753e+01,9.699081568750010263e+00
1.294084024006859224e+01,9.506862842966874894e+00
1.296084595598742517e+01,9.078795707706309059e+00
1.298085167190625810e+01,8.997268683976109571e+00
1.300085738782509281e+01,8.833175326873472955e+00
1.302086310374392752e+01,8.875073379684794261e+00
1.304086881966276046e+01,7.853617883000652000e+00
1.306087453558159517e+01,7.851509053356474865e+00
1.308088025150042810e+01,6.681017877318492282e+00
1.310088596741926281e+01,7.101545546464776315e+00
1.312089168333809752e+01,7.071743650455661445e+00
1.314089739925693046e+01,6.492014068455699061e+00
1.316090311517576517e+01,6.527183155554446614e+00
1.318090883109459810e+01,6.392865593285931070e+00
1.320091454701343281e+01,6.159772090196132588e+00
1.322092026293226752e+01,6.760256910174946121e+00
1.324092597885110045e+01,6.452235087767512312e+00
1.326093169476993339e+01,6.517627269144806945e+00
1.328093741068876810e+01,5.748882193766521098e+00
1.330094312660760281e+01,5.476071779006445261e+00
1.332094884252643574e+01,6.209395251711922192e+00
1.334095455844527045e+01,6.513187090656257894e+00
1.336096027436410338e+01,5.190351285700425699e+00
1.338096599028293809e+01,5.225394955904994809e+00
1.340097170620177280e+01,5.774538583710480566e+00
1.342097742212060574e+01,5.347276294469478941e+00
1.344098313803944045e+01,5.343073005566550293e+00
1.346098885395827338e+01,5.567423873695148906e+00
1.348099456987710809e+01,5.207106287801021693e+00
1.350100028579594280e+01,5.675948510767319988e+00
1.352100600171477573e+01,4.978458312454256962e+00
1.354101171763361044e+01,4.908158899288047827e+00
1.356101743355244338e+01,4.465836306888929741e+00
1.358102314947127809e+01,4.314673006471194228e+00
1.360102886539011102e+01,5.457897061229690649e+00
1.362103458130894573e+01,5.217017656688661909e+00
1.364104029722777867e+01,4.847538503837125035e+00
1.366104601314661338e+01,4.901441278268658941e+00
1.368105172906544809e+01,5.808114293820290541e+00
1.370105744498428102e+01,5.584370316136849866e+00
1.372106316090311573e+01,4.354079511917679390e+00
1.374106887682194866e+01,5.153257993674571935e+00
1.376107459274078337e+01,5.575068634932513589e+00
1.378108030865961808e+01,5.417944820133818951e+00
1.380108602457845102e+01,4.601715960219231683e+00
1.382109174049728573e+01,5.165250432094921962e+00
1.384109745641611866e+01,5.189641443434550361e+00
1.386110317233495337e+01,5.511298437616572343e+00
1.388110888825378808e+01,4.979323793810149112e+00
1.390111460417262101e+01,4.927102749318197361e+00
1.392112032009145395e+01,4.034142136809724555e+00
1.394112603601028866e+01,4.348752136302287852e+00
1.396113175192912337e+01,5.270899214176628433e+00
1.398113746784795630e+01,4.668462612302156423e+00
1.400114318376679101e+01,5.009928298732626573e+00
1.402114889968562395e+01,4.977547961223670825e+00
1.404115461560445866e+01,5.473054491721964787e+00
1.406116033152329337e+01,4.015637401002838835e+00
1.408116604744212630e+01,4.814255115829913834e+00
1.410117176336095923e+01,5.077951841442819969e+00
1.412117747927979394e+01,4.292178529086950078e+00
1.414118319519862865e+01,4.843569621489002941e+00
1.416118891111746336e+01,5.073622522360230924e+00
1.418119462703629630e+01,4.587701605198620136e+00
1.420120034295512923e+01,5.200587635405799602e+00
1.422120605887396394e+01,4.882602458907033594e+00
1.424121177479279865e+01,5.141947185790603392e+00
1.426121749071163336e+01,5.333126636924084174e+00
1.428122320663046629e+01,5.195766072327416829e+00
1.430122892254929923e+01,5.496235337093505535e+00
1.432123463846813394e+01,5.030524089309855285e+00
1.434124035438696865e+01,4.839498236376405416e+00
1.436124607030580158e+01,5.580528163776474315e+00
1.438125178622463629e+01,5.218563715603376174e+00
1.440125750214346922e+01,5.480571067117468331e+00
1.442126321806230393e+01,5.176636291566090620e+00
1.444126893398113864e+01,5.571116471588995367e+00
1.446127464989997158e+01,4.982657854837710509e+00
1.448128036581880451e+01,4.668711319377485403e+00
1.450128608173763922e+01,4.230563033001494944e+00
1.452129179765647393e+01,5.449211967451121907e+00
1.454129751357530864e+01,5.413832359029860264e+00
1.456130322949414158e+01,4.778275974405669757e+00
1.458130894541297451e+01,5.564053727899471724e+00
1.460131466133180922e+01,5.067911179466367599e+00
1.462132037725064393e+01,5.721051426010500762e+00
1.464132609316947686e+01,4.893384458986060892e+00
1.466133180908831157e+01,5.833191409898556223e+00
1.468133752500714451e+01,6.033706864093233868e+00
1.470134324092597922e+01,5.516601174179196931e+00
1.472134895684481393e+01,5.325167553579158941e+00
1.474135467276364686e+01,5.901501392024467663e+00
1.476136038868247979e+01,5.426759160415382865e+00
1.478136610460131450e+01,6.590532080649435187e+00
1.480137182052014921e+01,5.852268911026131448e+00
1.482137753643898392e+01,5.668380162369472508e+00
1.484138325235781686e+01,6.406041140819574764e+00
1.486138896827664979e+01,6.333758041883678302e+00
1.488139468419548450e+01,6.498144212222683791e+00
1.490140040011431921e+01,5.793409935495757779e+00
1.492140611603315392e+01,5.752284505327114772e+00
1.494141183195198685e+01,6.158555976660760933e+00
1.496141754787081979e+01,6.206971159667700633e+00
1.498142326378965450e+01,7.019589029703347194e+00
1.500142897970848921e+01,6.095097322620744329e+00
1.502143469562732214e+01,7.162966898291529105e+00
1.504144041154615508e+01,7.377324310303105648e+00
1.506144612746498979e+01,6.317722692173617816e+00
1.508145184338382450e+01,6.766917918992703562e+00
1.510145755930265921e+01,7.511798628457000859e+00
1.512146327522149214e+01,8.264657537744007243e+00
1.514146899114032507e+01,7.585326284189107149e+00
1.516147470705915978e+01,7.634304606463258480e+00
1.518148042297799449e+01,8.304522339300085321e+00
1.520148613889682920e+01,8.195376646170059232e+00
1.522149185481566214e+01,8.602314704645147359e+00
1.524149757073449507e+01,8.144781305559845919e+00
1.526150328665332978e+01,8.472497196625456084e+00
1.528150900257216449e+01,8.602790905450351744e+00
1.530151471849099742e+01,8.882589748857865786e+00
1.532152043440983036e+01,9.697108040426265063e+00
1.534152615032866507e+01,9.200104625050013141e+00
1.536153186624749978e+01,9.241169844288114277e+00
1.538153758216633449e+01,9.556820902806627771e+00
1.540154329808516742e+01,9.177505987822952349e+00
1.542154901400400036e+01,9.688820494967551156e+00
1.544155472992283507e+01,1.043578946955429920e+01
1.546156044584166978e+01,1.044301767979605344e+01
1.548156616176050449e+01,1.050623352559385815e+01
1.550157187767933742e+01,1.130906992185380311e+01
1.552157759359817035e+01,1.068461990800548378e+01
1.554158330951700506e+01,1.126504275603670990e+01
1.556158902543583977e+01,1.174290522123994585e+01
1.558159474135467271e+01,1.254263976211367826e+01
1.560160045727350742e+01,1.192678960343955019e+01
1.562160617319234035e+01,1.282880679581683658e+01
1.564161188911117506e+01,1.241115911508416048e+01
1.566161760503000977e+01,1.298511478336001268e+01
1.568162332094884270e+01,1.279196624842733776e+01
1.570162903686767564e+01,1.404735736811792712e+01
1.572163475278651035e+01,1.382024190631947747e+01
1.574164046870534506e+01,1.357149359096274921e+01
1.576164618462417977e+01,1.427693550208256923e+01
1.578165190054301270e+01,1.556148070512665171e+01
1.580165761646184563e+01,1.515178622348869197e+01
1.582166333238068034e+01,1.569704447273782577e+01
1.584166904829951505e+01,1.656603104893124723e+01
1.586167476421834799e+01,1.614503318702100643e+01
1.588168048013718270e+01,1.696837161107167802e+01
1.590168619605601563e+01,1.734491713765256549e+01
1.592169191197485034e+01,1.786866088754684512e+01
1.594169762789368505e+01,1.784683602356456333e+01
1.596170334381251799e+01,1.879131498955336355e+01
1.598170905973135092e+01,1.845791926638289482e+01
1.600171477565018563e+01,1.916077893908513019e+01
1.602172049156902034e+01,1.964387111976950706e+01
1.604172620748785505e+01,1.996667865720507251e+01
1.606173192340668976e+01,2.088831006651327016e+01
1.608173763932552092e+01,2.145891264154395017e+01
1.610174335524435563e+01,2.195262696085719156e+01
1.612174907116319034e+01,2.228837474933261120e+01
1.614175478708202505e+01,2.250684904348247883e+01
1.616176050300085620e+01,2.246083742659035920e+01
1.618176621891969091e+01,2.424787889818789210e+01
1.620177193483852562e+01,2.400583825296236284e+01
1.622177765075736033e+01,2.416971369085653265e+01
1.624178336667619504e+01,2.483366571897451891e+01
1.626178908259502620e+01,2.621432941912238590e+01
1.628179479851386091e+01,2.658224373361415616e+01
1.630180051443269562e+01,2.592145882351834629e+01
1.632180623035153033e+01,2.747650053679224769e+01
1.634181194627036149e+01,2.722366580384622026e+01
1.636181766218919620e+01,2.813420829381984589e+01
1.638182337810803091e+01,2.790645566857805804e+01
1.640182909402686562e+01,2.880358773448894993e+01
1.642183480994570033e+01,2.866617492628372688e+01
1.644184052586453504e+01,2.928285951661188591e+01
1.646184624178336620e+01,2.985020841658081281e+01
1.648185195770220091e+01,3.063753202348758009e+01
1.650185767362103562e+01,3.061090262951519847e+01
1.652186338953986677e+01,3.098418759367635644e+01
1.654186910545870148e+01,3.060528568565348451e+01
1.656187482137753619e+01,3.090342375684601706e+01
1.658188053729637090e+01,3.176377937713968436e+01
1.660188625321520561e+01,3.198756494881255108e+01
1.662189196913404032e+01,3.198785978512326267e+01
1.664189768505287148e+01,3.104561262167754876e+01
1.666190340097170619e+01,3.044763672008114952e+01
1.668190911689054090e+01,3.106601139682078028e+01
1.670191483280937561e+01,3.089331112523365164e+01
1.672192054872820677e+01,3.028283724257136100e+01
1.674192626464704148e+01,2.954084886286616296e+01
1.676193198056587619e+01,2.873898547876814646e+01
1.678193769648471090e+01,2.914185885887230398e+01
1.680194341240354561e+01,2.716293623423667469e+01
1.682194912832238032e+01,2.645998123343242625e+01
1.684195484424121148e+01,2.644130539524504542e+01
1.686196056016004619e+01,2.554278436473938640e+01
1.688196627607888090e+01,2.457965889396335513e+01
1.690197199199771205e+01,2.406137135878321942e+01
1.692197770791654676e+01,2.358081976180659822e+01
1.694198342383538147e+01,2.295291644369079620e+01
1.696198913975421618e+01,2.132214390053021447e+01
1.698199485567305089e+01,2.038102268148817586e+01
1.700200057159188560e+01,2.043386831940215131e+01
1.702200628751071676e+01,2.023959744301829744e+01
1.704201200342955147e+01,1.919621562537088622e+01
1.706201771934838618e+01,1.981774501685289280e+01
1.708202343526722089e+01,1.919579227851446745e+01
1.710202915118605205e+01,1.938673885722026213e+01
1.712203486710488676e+01,1.986106240193653250e+01
1.714204058302372147e+01,1.914962291546889617e+01
1.716204629894255618e+01,1.963594025147522970e+01
1.718205201486139089e+01,1.970622025873380423e+01
1.720205773078022204e+01,1.976057161876214607e+01
1.722206344669905675e+01,1.905708513729644338e+01
1.724206916261789146e+01,1.910459840601465942e+01
1.726207487853672617e+01,1.942845029779299182e+01
1.728208059445555733e+01,2.064119281486504320e+01
1.730208631037439204e+01,2.017908527769622395e+01
1.732209202629322675e+01,2.014116936609748265e+01
1.734209774221206146e+01,2.082895107544950619e+01
1.736210345813089617e+01,2.062286731663075301e+01
1.738210917404973088e+01,2.142690328265575417e+01
1.740211488996856204e+01,2.241775177733083524e+01
1.742212060588739675e+01,2.266209278777946778e+01
1.744212632180623146e+01,2.194453392384493995e+01
1.746213203772506262e+01,2.306922512088818422e+01
1.748213775364389733e+01,2.314540308596529528e+01
1.750214346956273204e+01,2.384789209825109424e+01
1.752214918548156675e+01,2.446135149907572526e+01
1.754215490140040146e+01,2.536740889829794554e+01
1.756216061731923617e+01,2.547031632709570204e+01
1.758216633323806732e+01,2.569438993387358749e+01
1.760217204915690203e+01,2.621090976146733809e+01
1.762217776507573674e+01,2.709159183123761494e+01
1.764218348099457145e+01,2.719917194610530586e+01
1.766218919691340261e+01,2.758828892620691420e+01
1.768219491283223732e+01,2.867582219587740155e+01
1.770220062875107203e+01,2.982795912840436614e+01
1.772220634466990674e+01,3.033742520705501988e+01
1.774221206058874145e+01,3.010844128918581575e+01
1.776221777650757616e+01,3.075307411559968074e+01
1.778222349242640732e+01,3.094233465086530543e+01
1.780222920834524203e+01,3.170330673433891278e+01
1.782223492426407674e+01,3.155035821306892529e+01
1.784224064018290790e+01,3.267315115222729105e+01
1.786224635610174261e+01,3.252148957253131556e+01
1.788225207202057732e+01,3.285178907415543392e+01
1.790225778793941203e+01,3.422458564360238853e+01
1.792226350385824674e+01,3.338143464412172534e+01
1.794226921977708145e+01,3.406456796850004309e+01
1.796227493569591260e+01,3.384215460014144128e+01
