angle,intensity
1.000000000000000000e+01,6.913121966537489982e+01
1.002000571591883471e+01,8.431737435733060693e+01
1.004001143183766764e+01,8.386588404705571520e+01
1.006001714775650235e+01,8.550497972555271531e+01
1.008002286367533529e+01,8.509213135449641641e+01
1.010002857959417000e+01,8.604731205160280183e+01
1.012003429551300293e+01,8.666986143420223243e+01
1.014004001143183764e+01,8.733078172491383384e+01
1.016004572735067235e+01,8.699646761720009636e+01
1.018005144326950528e+01,8.684192093084951125e+01
1.020005715918833999e+01,8.669637181123007963e+01
1.022006287510717293e+01,8.652027601578768667e+01
1.024006859102600764e+01,8.630975010687902227e+01
1.026007430694484057e+01,8.537669399927641223e+01
1.028008002286367528e+01,8.427175750086064454e+01
1.030008573878250999e+01,8.259794619351256983e+01
1.032009145470134293e+01,8.099260492238428810e+01
1.034009717062017764e+01,7.914808002354672567e+01
1.036010288653901057e+01,7.638086376024779156e+01
1.038010860245784528e+01,7.410596000827892738e+01
1.040011431837667999e+01,7.115329723311128873e+01
1.042012003429551292e+01,6.906447768697088918e+01
1.044012575021434763e+01,6.479623174219875636e+01
1.046013146613318057e+01,6.218343298990514256e+01
1.048013718205201528e+01,5.911414942254900495e+01
1.050014289797084821e+01,5.496558514663837514e+01
1.052014861388968292e+01,5.100294773946274773e+01
1.054015432980851585e+01,4.728625992262971778e+01
1.056016004572735056e+01,4.350671069106574862e+01
1.058016576164618527e+01,3.993734006620703525e+01
1.060017147756501821e+01,3.610822522855391981e+01
1.062017719348385292e+01,3.313396738156300358e+01
1.064018290940268585e+01,2.956405146960595332e+01
1.066018862532152056e+01,2.755344989477407580e+01
1.068019434124035527e+01,2.556299329764059181e+01
1.070020005715918820e+01,2.336876358043650725e+01
1.072020577307802292e+01,2.023826569000987163e+01
1.074021148899685585e+01,1.866100412358721883e+01
1.076021720491569056e+01,1.744850478806395699e+01
1.078022292083452349e+01,1.629541547360704712e+01
1.080022863675335820e+01,1.434748551416045004e+01
1.082023435267219291e+01,1.391706871649751776e+01
1.084024006859102585e+01,1.334417043373309752e+01
1.086024578450986056e+01,1.268299990767057750e+01
1.088025150042869349e+01,1.230381185316603876e+01
1.090025721634752820e+01,1.130412384800931136e+01
1.092026293226636113e+01,1.082006480462080233e+01
1.094026864818519584e+01,1.026621883219585030e+01
1.096027436410403055e+01,1.029313743705054662e+01
1.098028008002286349e+01,9.107563321619306151e+00
1.100028579594169820e+01,9.464548267546502913e+00
1.102029151186053113e+01,1.014044755129967434e+01
1.104029722777936584e+01,9.352463726408608125e+00
1.106030294369819877e+01,8.665978046146769032e+00
1.108030865961703348e+01,9.040338622208365038e+00
1.110031437553586819e+01,9.244737222608755189e+00
1.112032009145470113e+01,7.928059115447876337e+00
1.114032580737353584e+01,8.512981282134859384e+00
1.116033152329236877e+01,8.417185624739936145e+00
1.118033723921120348e+01,8.180749953198418467e+00
1.120034295513003642e+01,8.588686511430044135e+00
1.122034867104887113e+01,8.252800969498686356e+00
1.124035438696770584e+01,8.285313079105350198e+00
1.126036010288653877e+01,7.807425857139238978e+00
1.128036581880537348e+01,7.498910629617673962e+00
1.130037153472420641e+01,8.009235591579034974e+00
1.132037725064304112e+01,7.918485944732167603e+00
1.134038296656187583e+01,7.223068475868341665e+00
1.136038868248070877e+01,6.607735034870938051e+00
1.138039439839954348e+01,8.029773549181973280e+00
1.140040011431837641e+01,7.029532310156540120e+00
1.142040583023721112e+01,7.178593727216801668e+00
1.144041154615604405e+01,6.537772560237889330e+00
1.146041726207487876e+01,7.143788002700716788e+00
1.148042297799371170e+01,6.837133992263490612e+00
1.150042869391254641e+01,6.721633031731743202e+00
1.152043440983138112e+01,7.580517631128643075e+00
1.154044012575021405e+01,6.845665234205630334e+00
1.156044584166904876e+01,7.294685403739932461e+00
1.158045155758788169e+01,6.291816289168808751e+00
1.160045727350671640e+01,6.500517783686170503e+00
1.162046298942555111e+01,6.847863531960651784e+00
1.164046870534438405e+01,7.109164734965414567e+00
1.166047442126321876e+01,7.509493100824069067e+00
1.168048013718205169e+01,6.914878606871127431e+00
1.170048585310088640e+01,7.268442136579915669e+00
1.172049156901971934e+01,7.443302811244481454e+00
1.174049728493855405e+01,6.340325318082300043e+00
1.176050300085738698e+01,6.663060367378205839e+00
1.178050871677622169e+01,7.147358456609100408e+00
1.180051443269505640e+01,5.774917482494956289e+00
1.182052014861388933e+01,6.361805100121776135e+00
1.184052586453272404e+01,6.089115268351979360e+00
1.186053158045155698e+01,5.958064498249463270e+00
1.188053729637039169e+01,6.474324598346486326e+00
1.190054301228922640e+01,6.800457726945682957e+00
1.192054872820805933e+01,6.618058799184137087e+00
1.194055444412689404e+01,6.744824250133352628e+00
1.196056016004572697e+01,6.193727916057902405e+00
1.198056587596456168e+01,5.995876168789559202e+00
1.200057159188339639e+01,6.490721396257507436e+00
1.202057730780222933e+01,7.278100858895989234e+00
1.204058302372106226e+01,6.449661603753867212e+00
1.206058873963989697e+01,6.220796607518733978e+00
1.208059445555873168e+01,6.175924804887115371e+00
1.210060017147756461e+01,6.567605407878218671e+00
1.212060588739639932e+01,7.136760220399237298e+00
1.214061160331523226e+01,6.643162490576028034e+00
1.216061731923406697e+01,6.479792166654029018e+00
1.218062303515290168e+01,7.018326026944164298e+00
1.220062875107173461e+01,6.356077052359932367e+00
1.222063446699056932e+01,5.842259137487930687e+00
1.224064018290940226e+01,5.918669875860720353e+00
1.226064589882823697e+01,6.393636505205616771e+00
1.228065161474707168e+01,5.863478645719450100e+00
1.230065733066590461e+01,6.655714693820265815e+00
1.232066304658473754e+01,7.082029519488058256e+00
1.234066876250357225e+01,6.252849005308815045e+00
1.236067447842240696e+01,6.799703720275294572e+00
1.238068019434123990e+01,6.100160939697205187e+00
1.240068591026007461e+01,6.899791099049778609e+00
1.242069162617890754e+01,6.681694613590462239e+00
1.244069734209774225e+01,6.693712248380659702e+00
1.246070305801657696e+01,7.333859340654984571e+00
1.248070877393540989e+01,6.842544682301664238e+00
1.250071448985424460e+01,7.562276119094724969e+00
1.252072020577307754e+01,7.151468979089582234e+00
1.254072592169191225e+01,6.961718523124341473e+00
1.256073163761074696e+01,6.743065458190422135e+00
1.258073735352957989e+01,7.547757658679460135e+00
1.260074306944841460e+01,7.073362154943051650e+00
1.262074878536724754e+01,6.965356808453500470e+00
1.264075450128608225e+01,6.997900267991719936e+00
1.266076021720491518e+01,6.972690482076513874e+00
1.268076593312374989e+01,7.624312156928469975e+00
1.270077164904258282e+01,7.235897509599424460e+00
1.272077736496141753e+01,6.946536863743940415e+00
1.274078308088025224e+01,6.899604658147467262e+00
1.276078879679908518e+01,7.914422221037485272e+00
1.278079451271791989e+01,7.140084798520554443e+00
1.280080022863675282e+01,6.739470118204531346e+00
1.282080594455558753e+01,7.532732929150345313e+00
1.284081166047442224e+01,7.152754835069057293e+00
1.286081737639325517e+01,7.307248812204601762e+00
1.288082309231208988e+01,7.889040385776715070e+00
1.290082880823092282e+01,6.919744023045080183e+00
1.292083452414975753e+01,7.599773242217290559e+00
1.294084024006859224e+01,8.276726595129014541e+00
1.296084595598742517e+01,8.008520649778999356e+00
1.298085167190625810e+01,7.525059981403382281e+00
1.300085738782509281e+01,8.108451046550715802e+00
1.302086310374392752e+01,7.757982576250881834e+00
1.304086881966276046e+01,7.981350562890516365e+00
1.306087453558159517e+01,7.774565342035487880e+00
1.308088025150042810e+01,8.121140371258896096e+00
1.310088596741926281e+01,8.161011724098546694e+00
1.312089168333809752e+01,8.543768699438667014e+00
1.314089739925693046e+01,8.435542488318818144e+00
1.316090311517576517e+01,8.648387457048237081e+00
1.318090883109459810e+01,8.605107247563715589e+00
1.320091454701343281e+01,8.247537380351605663e+00
1.322092026293226752e+01,9.235905090498954806e+00
1.324092597885110045e+01,8.584620168829914633e+00
1.326093169476993339e+01,8.765620101306289769e+00
1.328093741068876810e+01,9.023321924585669507e+00
1.330094312660760281e+01,9.509602900060254882e+00
1.332094884252643574e+01,9.551488804936592913e+00
1.334095455844527045e+01,9.099373636419304745e+00
1.336096027436410338e+01,8.841400500258188799e+00
1.338096599028293809e+01,9.911664551013847912e+00
1.340097170620177280e+01,9.046752311976849370e+00
1.342097742212060574e+01,9.541461239669303041e+00
1.344098313803944045e+01,9.355362703073744512e+00
1.346098885395827338e+01,9.777429621711828389e+00
1.348099456987710809e+01,1.095549497858104004e+01
1.350100028579594280e+01,1.071040192680313297e+01
1.352100600171477573e+01,1.077423991480349486e+01
1.354101171763361044e+01,1.076848283432117093e+01
1.356101743355244338e+01,1.024340874237860710e+01
1.358102314947127809e+01,1.160534950220496953e+01
1.360102886539011102e+01,1.075178846406375754e+01
1.362103458130894573e+01,1.057066922423577893e+01
1.364104029722777867e+01,1.108889151996297606e+01
1.366104601314661338e+01,1.111232325497699058e+01
1.368105172906544809e+01,1.118101423643996206e+01
1.370105744498428102e+01,1.216106726904745727e+01
1.372106316090311573e+01,1.155502203294508057e+01
1.374106887682194866e+01,1.188202519546889668e+01
1.376107459274078337e+01,1.233046559100944251e+01
1.378108030865961808e+01,1.280849224431693756e+01
1.380108602457845102e+01,1.209579738979000396e+01
1.382109174049728573e+01,1.188209173284942466e+01
1.384109745641611866e+01,1.248596659171851364e+01
1.386110317233495337e+01,1.165069090406724328e+01
1.388110888825378808e+01,1.181739196706198314e+01
1.390111460417262101e+01,1.191323847189556417e+01
1.392112032009145395e+01,1.160070696733543549e+01
1.394112603601028866e+01,1.219405778779779581e+01
1.396113175192912337e+01,1.215515307236000453e+01
1.398113746784795630e+01,1.242087052202123232e+01
1.400114318376679101e+01,1.183455495213032194e+01
1.402114889968562395e+01,1.234887157749721887e+01
1.404115461560445866e+01,1.142180469814003807e+01
1.406116033152329337e+01,1.172612356089273966e+01
1.408116604744212630e+01,1.166861397321534000e+01
1.410117176336095923e+01,1.110784321427424715e+01
1.412117747927979394e+01,1.115140747252916853e+01
1.414118319519862865e+01,1.138376269978043709e+01
1.416118891111746336e+01,1.129828318897226147e+01
1.418119462703629630e+01,1.099327684317789178e+01
1.420120034295512923e+01,1.072526381007005725e+01
1.422120605887396394e+01,1.090634738238917478e+01
1.424121177479279865e+01,1.137075110782049236e+01
1.426121749071163336e+01,1.125407456393090655e+01
1.428122320663046629e+01,1.063961622603397572e+01
1.430122892254929923e+01,1.147848982745452240e+01
1.432123463846813394e+01,1.051063560177709988e+01
1.434124035438696865e+01,1.196770634734886940e+01
1.436124607030580158e+01,1.183543139083460360e+01
1.438125178622463629e+01,1.223229875226188668e+01
1.440125750214346922e+01,1.209607557813086842e+01
1.442126321806230393e+01,1.318630568326526031e+01
1.444126893398113864e+01,1.216509417921377789e+01
1.446127464989997158e+01,1.343619375330914778e+01
1.448128036581880451e+01,1.294569508450105033e+01
1.450128608173763922e+01,1.322851813474851745e+01
1.452129179765647393e+01,1.398212199025733682e+01
1.454129751357530864e+01,1.449152758130848540e+01
1.456130322949414158e+01,1.483979406691225833e+01
1.458130894541297451e+01,1.593486168882816223e+01
1.460131466133180922e+01,1.497022465738350760e+01
1.462132037725064393e+01,1.610823991411521661e+01
1.464132609316947686e+01,1.703206827138807000e+01
1.466133180908831157e+01,1.719367527462393852e+01
1.468133752500714451e+01,1.791481386781719820e+01
1.470134324092597922e+01,1.790689406476543866e+01
1.472134895684481393e+01,1.924776306045536245e+01
1.474135467276364686e+01,1.949659189383260838e+01
1.476136038868247979e+01,2.014929656216845899e+01
1.478136610460131450e+01,2.073042671793596980e+01
1.480137182052014921e+01,2.110405526215696170e+01
1.482137753643898392e+01,2.157423587079464866e+01
1.484138325235781686e+01,2.218308436549423845e+01
1.486138896827664979e+01,2.428968219947990548e+01
1.488139468419548450e+01,2.448942506290001475e+01
1.490140040011431921e+01,2.513102112871810334e+01
1.492140611603315392e+01,2.593657971841546583e+01
1.494141183195198685e+01,2.667212407557980924e+01
1.496141754787081979e+01,2.715169772668076575e+01
1.498142326378965450e+01,2.818995842493958293e+01
1.500142897970848921e+01,2.869909712891046283e+01
1.502143469562732214e+01,2.952507463756201389e+01
1.504144041154615508e+01,3.067971165753666796e+01
1.506144612746498979e+01,3.228085169049975178e+01
1.508145184338382450e+01,3.351968841957514655e+01
1.510145755930265921e+01,3.390222551026717923e+01
1.512146327522149214e+01,3.478602401039066194e+01
1.514146899114032507e+01,3.664978636479374074e+01
1.516147470705915978e+01,3.739880059067775164e+01
1.518148042297799449e+01,3.874055820837772046e+01
1.520148613889682920e+01,3.975000260727964019e+01
1.522149185481566214e+01,4.145130260853157012e+01
1.524149757073449507e+01,4.194198378232898961e+01
1.526150328665332978e+01,4.416545216074330682e+01
1.528150900257216449e+01,4.483788467336823658e+01
1.530151471849099742e+01,4.628012432504823437e+01
1.532152043440983036e+01,4.793643110584811495e+01
1.534152615032866507e+01,4.892269612413740276e+01
1.536153186624749978e+01,4.992231101304046348e+01
1.538153758216633449e+01,5.106829197316234570e+01
1.540154329808516742e+01,5.335315380015518372e+01
1.542154901400400036e+01,5.517517243611757749e+01
1.544155472992283507e+01,5.553857621939386036e+01
1.546156044584166978e+01,5.770928142246573600e+01
1.548156616176050449e+01,5.872459235003248068e+01
1.550157187767933742e+01,6.023914424155383074e+01
1.552157759359817035e+01,6.257973980811241432e+01
1.554158330951700506e+01,6.345845572034671278e+01
1.556158902543583977e+01,6.541561235560608623e+01
1.558159474135467271e+01,6.644346331249201398e+01
1.560160045727350742e+01,6.843620461163841640e+01
1.562160617319234035e+01,7.031848983811318021e+01
1.564161188911117506e+01,7.111033040944820982e+01
1.566161760503000977e+01,7.314461678630905794e+01
1.568162332094884270e+01,7.493013694187655460e+01
1.570162903686767564e+01,7.639793653382085381e+01
1.572163475278651035e+01,7.792936079798468541e+01
1.574164046870534506e+01,8.061199440470807076e+01
1.576164618462417977e+01,8.246993272047518531e+01
1.578165190054301270e+01,8.366068674040803899e+01
1.580165761646184563e+01,8.657348686925971037e+01
1.582166333238068034e+01,8.769024836617823837e+01
1.584166904829951505e+01,8.869999935360330312e+01
1.586167476421834799e+01,9.086851184618073773e+01
1.588168048013718270e+01,9.209537400096346005e+01
1.590168619605601563e+01,9.407098664625686979e+01
1.592169191197485034e+01,9.521434820690954837e+01
1.594169762789368505e+01,9.654070387381607077e+01
1.596170334381251799e+01,9.812746815959312130e+01
1.598170905973135092e+01,9.784292745871968577e+01
1.600171477565018563e+01,9.868346838360938023e+01
1.602172049156902034e+01,9.907162815897162034e+01
1.604172620748785505e+01,9.957228564367875379e+01
1.606173192340668976e+01,9.918454671074114515e+01
1.608173763932552092e+01,9.779267055291987276e+01
1.610174335524435563e+01,9.800679245734436051e+01
1.612174907116319034e+01,9.651651993898964577e+01
1.614175478708202505e+01,9.616043277955546387e+01
1.616176050300085620e+01,9.522727183534011886e+01
1.618176621891969091e+01,9.352552337012537009e+01
1.620177193483852562e+01,9.169523707222336384e+01
1.622177765075736033e+01,9.097599630665850157e+01
1.624178336667619504e+01,9.055977423148209482e+01
1.626178908259502620e+01,8.801187789125937400e+01
1.628179479851386091e+01,8.726375100144423413e+01
1.630180051443269562e+01,8.580790182124093235e+01
1.632180623035153033e+01,8.561256664396333349e+01
1.634181194627036149e+01,8.398372782149314730e+01
1.636181766218919620e+01,8.244738253010277163e+01
1.638182337810803091e+01,8.127926639325264091e+01
1.640182909402686562e+01,7.991128483612314426e+01
1.642183480994570033e+01,7.847707135718772520e+01
1.644184052586453504e+01,7.677092132027128457e+01
1.646184624178336620e+01,7.503332330423717167e+01
1.648185195770220091e+01,7.463175305835612505e+01
1.650185767362103562e+01,7.215060074527843881e+01
1.652186338953986677e+01,7.098461937187532556e+01
1.654186910545870148e+01,7.002303441016027818e+01
1.656187482137753619e+01,6.902500699586911992e+01
1.658188053729637090e+01,6.831579164605525989e+01
1.660188625321520561e+01,6.630358045732471339e+01
1.662189196913404032e+01,6.695118834334320468e+01
1.664189768505287148e+01,6.559465683867526309e+01
1.666190340097170619e+01,6.527931801986687788e+01
1.668190911689054090e+01,6.515376117117190802e+01
1.670191483280937561e+01,6.428893645819650260e+01
1.672192054872820677e+01,6.440535636918025375e+01
1.674192626464704148e+01,6.363035905554856697e+01
1.676193198056587619e+01,6.331476646238965600e+01
1.678193769648471090e+01,6.318773696011852081e+01
1.680194341240354561e+01,6.248865258529809807e+01
1.682194912832238032e+01,6.313709262908132303e+01
1.684195484424121148e+01,6.185054954286393070e+01
1.686196056016004619e+01,6.109453237791103675e+01
1.688196627607888090e+01,6.063480821185838465e+01
1.690197199199771205e+01,6.023832959071851434e+01
1.692197770791654676e+01,5.955885807946881982e+01
1.694198342383538147e+01,5.828671126397809132e+01
1.696198913975421618e+01,5.710947219850027068e+01
1.698199485567305089e+01,5.596752137898999990e+01
1.700200057159188560e+01,5.498635850548726012e+01
1.702200628751071676e+01,5.273779941313678421e+01
1.704201200342955147e+01,5.219734955031250934e+01
1.706201771934838618e+01,5.064064335625520386e+01
1.708202343526722089e+01,4.964268477153417791e+01
1.710202915118605205e+01,4.717513131381159042e+01
1.712203486710488676e+01,4.533319296908621965e+01
1.714204058302372147e+01,4.470671214414298333e+01
1.716204629894255618e+01,4.315883322907193786e+01
1.718205201486139089e+01,4.221282312037034501e+01
1.720205773078022204e+01,4.013258160320432921e+01
1.722206344669905675e+01,3.913780502623953339e+01
1.724206916261789146e+01,3.749560491789323180e+01
1.726207487853672617e+01,3.627003561132909226e+01
1.728208059445555733e+01,3.508735679460762924e+01
1.730208631037439204e+01,3.368495589502469301e+01
1.732209202629322675e+01,3.195070929724925790e+01
1.734209774221206146e+01,3.218304990421673750e+01
1.736210345813089617e+01,3.022531613499449321e+01
1.738210917404973088e+01,2.893572796943899661e+01
1.740211488996856204e+01,2.805357756669697977e+01
1.742212060588739675e+01,2.608470400402162426e+01
1.744212632180623146e+01,2.497415590178567157e+01
1.746213203772506262e+01,2.423154113195488435e+01
1.748213775364389733e+01,2.303723696289024048e+01
1.750214346956273204e+01,2.336559110576485665e+01
1.752214918548156675e+01,2.203964985756071826e+01
1.754215490140040146e+01,2.142512552796044645e+01
1.756216061731923617e+01,2.036540910451502029e+01
1.758216633323806732e+01,2.092726993912967970e+01
1.760217204915690203e+01,2.015236680853585227e+01
1.762217776507573674e+01,1.998282709141510693e+01
1.764218348099457145e+01,2.087953636623435116e+01
1.766218919691340261e+01,1.993257091189127550e+01
1.768219491283223732e+01,2.070910634446997989e+01
1.770220062875107203e+01,2.003166778857529451e+01
1.772220634466990674e+01,2.087443610563369134e+01
1.774221206058874145e+01,2.119513059505291253e+01
1.776221777650757616e+01,2.199269244612559504e+01
1.778222349242640732e+01,2.230271966565710429e+01
1.780222920834524203e+01,2.272583589172990060e+01
1.782223492426407674e+01,2.283294750917422888e+01
1.784224064018290790e+01,2.462175714536502014e+01
1.786224635610174261e+01,2.577718471462083727e+01
1.788225207202057732e+01,2.598693592842808187e+01
1.790225778793941203e+01,2.618615233043664148e+01
1.792226350385824674e+01,2.701834010277431375e+01
1.794226921977708145e+01,2.723703126175397315e+01
1.796227493569591260e+01,2.884643723429793738e+01
