angle,intensity
1.000000000000000000e+01,9.714675403379902718e+01
1.002000571591883471e+01,9.706654372118310903e+01
1.004001143183766764e+01,9.789686562971056105e+01
1.006001714775650235e+01,9.862007136190750600e+01
1.008002286367533529e+01,9.852285996145030822e+01
1.010002857959417000e+01,9.840341533932743801e+01
1.012003429551300293e+01,9.673389938817213363e+01
1.014004001143183764e+01,9.620296589206411397e+01
1.016004572735067235e+01,9.656276893992675525e+01
1.018005144326950528e+01,9.485724207921458628e+01
1.020005715918833999e+01,9.241498526972938521e+01
1.022006287510717293e+01,9.153789443658546077e+01
1.024006859102600764e+01,8.905111071858726746e+01
1.026007430694484057e+01,8.587699640444550653e+01
1.028008002286367528e+01,8.192987361534387958e+01
1.030008573878250999e+01,7.890041066569241934e+01
1.032009145470134293e+01,7.442017632293284635e+01
1.034009717062017764e+01,7.002829509346550196e+01
1.036010288653901057e+01,6.632413075191240637e+01
1.038010860245784528e+01,6.006624850025728790e+01
1.040011431837667999e+01,5.629033255337250097e+01
1.042012003429551292e+01,5.045640691878996620e+01
1.044012575021434763e+01,4.619338919027877921e+01
1.046013146613318057e+01,4.174373306988101007e+01
1.048013718205201528e+01,3.587012441545092400e+01
1.050014289797084821e+01,3.322858001494143565e+01
1.052014861388968292e+01,2.838772725947757536e+01
1.054015432980851585e+01,2.602048020105510062e+01
1.056016004572735056e+01,2.284959131363409668e+01
1.058016576164618527e+01,2.118371551315630086e+01
1.060017147756501821e+01,1.784076363612430782e+01
1.062017719348385292e+01,1.746831013806182753e+01
1.064018290940268585e+01,1.513597882595652067e+01
1.066018862532152056e+01,1.332881816535183184e+01
1.068019434124035527e+01,1.335716115983635177e+01
1.070020005715918820e+01,1.159329218133964012e+01
1.072020577307802292e+01,1.157503401657019104e+01
1.074021148899685585e+01,1.145524367189688597e+01
1.076021720491569056e+01,1.078975445676149469e+01
1.078022292083452349e+01,9.130167136094998526e+00
1.080022863675335820e+01,9.194664868318469075e+00
1.082023435267219291e+01,8.765068112793663602e+00
1.084024006859102585e+01,8.638581959908446350e+00
1.086024578450986056e+01,8.523628341446322310e+00
1.088025150042869349e+01,9.123378100708301019e+00
1.090025721634752820e+01,8.743243946121738830e+00
1.092026293226636113e+01,8.208937517388696037e+00
1.094026864818519584e+01,7.320404506114375209e+00
1.096027436410403055e+01,8.240400496251373497e+00
1.098028008002286349e+01,7.299212040324894346e+00
1.100028579594169820e+01,7.367117263657729787e+00
1.102029151186053113e+01,8.060283908501210348e+00
1.104029722777936584e+01,7.919966031339897405e+00
1.106030294369819877e+01,7.349738508916833446e+00
1.108030865961703348e+01,6.992217659775373129e+00
1.110031437553586819e+01,6.970915300337124698e+00
1.112032009145470113e+01,6.386862448672956383e+00
1.114032580737353584e+01,7.896294999729995823e+00
1.116033152329236877e+01,7.137300274872258044e+00
1.118033723921120348e+01,6.708992941784494235e+00
1.120034295513003642e+01,6.381534864569771592e+00
1.122034867104887113e+01,6.196253604176832575e+00
1.124035438696770584e+01,6.197838833475024067e+00
1.126036010288653877e+01,7.350801960337863150e+00
1.128036581880537348e+01,5.897082342341013472e+00
1.130037153472420641e+01,7.303339209054672487e+00
1.132037725064304112e+01,6.499604366765996843e+00
1.134038296656187583e+01,6.119660015032337697e+00
1.136038868248070877e+01,6.778983933175038779e+00
1.138039439839954348e+01,5.705426719983877071e+00
1.140040011431837641e+01,7.133739826208972623e+00
1.142040583023721112e+01,5.575546433702381677e+00
1.144041154615604405e+01,5.467597282100247646e+00
1.146041726207487876e+01,6.212206130514729807e+00
1.148042297799371170e+01,5.788839931986890619e+00
1.150042869391254641e+01,5.886989398297284737e+00
1.152043440983138112e+01,6.212896060803568155e+00
1.154044012575021405e+01,5.369086005836621212e+00
1.156044584166904876e+01,6.559008286410770161e+00
1.158045155758788169e+01,6.274414043665496266e+00
1.160045727350671640e+01,6.673322007604434170e+00
1.162046298942555111e+01,5.681074777895540606e+00
1.164046870534438405e+01,5.221504356985209760e+00
1.166047442126321876e+01,6.067025445011452689e+00
1.168048013718205169e+01,5.766804678055543754e+00
1.170048585310088640e+01,6.954859330778698556e+00
1.172049156901971934e+01,6.261865315369278484e+00
1.174049728493855405e+01,6.092998016450523302e+00
1.176050300085738698e+01,5.815266969072860448e+00
1.178050871677622169e+01,5.386927093320991844e+00
1.180051443269505640e+01,6.175983299000582960e+00
1.182052014861388933e+01,5.379075163573363128e+00
1.184052586453272404e+01,6.453698197441305240e+00
1.186053158045155698e+01,5.281470209667488369e+00
1.188053729637039169e+01,5.892168880788624108e+00
1.190054301228922640e+01,6.117194894914566916e+00
1.192054872820805933e+01,5.526980339746839554e+00
1.194055444412689404e+01,5.191717513090844172e+00
1.196056016004572697e+01,4.884054804676248196e+00
1.198056587596456168e+01,5.445408733647692401e+00
1.200057159188339639e+01,6.234385227983668898e+00
1.202057730780222933e+01,5.228782880204261296e+00
1.204058302372106226e+01,6.063110593117779779e+00
1.206058873963989697e+01,5.802495547636194573e+00
1.208059445555873168e+01,5.862261518657758685e+00
1.210060017147756461e+01,6.242993728367531858e+00
1.212060588739639932e+01,5.201278368206187608e+00
1.214061160331523226e+01,4.702049245622741402e+00
1.216061731923406697e+01,6.527017182259565509e+00
1.218062303515290168e+01,4.957857937886022803e+00
1.220062875107173461e+01,5.719515898129933440e+00
1.222063446699056932e+01,6.466911054854071139e+00
1.224064018290940226e+01,4.814971370324964361e+00
1.226064589882823697e+01,5.173344617949269697e+00
1.228065161474707168e+01,5.985727326550147609e+00
1.230065733066590461e+01,4.600590029849439766e+00
1.232066304658473754e+01,5.253433154099028002e+00
1.234066876250357225e+01,4.763016877692654027e+00
1.236067447842240696e+01,6.307801812768515148e+00
1.238068019434123990e+01,5.409740200460024795e+00
1.240068591026007461e+01,5.066251983467515707e+00
1.242069162617890754e+01,5.991735013820114197e+00
1.244069734209774225e+01,6.293274733029466717e+00
1.246070305801657696e+01,6.005410796702924436e+00
1.248070877393540989e+01,4.619582976368164395e+00
1.250071448985424460e+01,5.479033655525781477e+00
1.252072020577307754e+01,4.831821115227857177e+00
1.254072592169191225e+01,4.861569314359791782e+00
1.256073163761074696e+01,5.803047341455874530e+00
1.258073735352957989e+01,5.506523517208467666e+00
1.260074306944841460e+01,4.457669040390305426e+00
1.262074878536724754e+01,6.073141549327935707e+00
1.264075450128608225e+01,4.795200466034011733e+00
1.266076021720491518e+01,5.294177314051057515e+00
1.268076593312374989e+01,4.917986389034917138e+00
1.270077164904258282e+01,4.779813125484190905e+00
1.272077736496141753e+01,6.154323333892644854e+00
1.274078308088025224e+01,5.777241459802035628e+00
1.276078879679908518e+01,5.480012974132008274e+00
1.278079451271791989e+01,6.140520816935429949e+00
1.280080022863675282e+01,5.742470977336017413e+00
1.282080594455558753e+01,5.666678870556975944e+00
1.284081166047442224e+01,6.095679244481874370e+00
1.286081737639325517e+01,4.968140925530959429e+00
1.288082309231208988e+01,4.996217260084473644e+00
1.290082880823092282e+01,5.571399926106392009e+00
1.292083452414975753e+01,5.904060049340851712e+00
1.294084024006859224e+01,4.499997277480848545e+00
1.296084595598742517e+01,5.138805931166506191e+00
1.298085167190625810e+01,5.982092598473253808e+00
1.300085738782509281e+01,4.521135196804957346e+00
1.302086310374392752e+01,5.682050644801231343e+00
1.304086881966276046e+01,4.330225096997499357e+00
1.306087453558159517e+01,5.991217368960588985e+00
1.308088025150042810e+01,4.926060521396314229e+00
1.310088596741926281e+01,5.750041044118687772e+00
1.312089168333809752e+01,4.264702887545378296e+00
1.314089739925693046e+01,4.655318991588007549e+00
1.316090311517576517e+01,4.380946293244708301e+00
1.318090883109459810e+01,5.387135762659490013e+00
1.320091454701343281e+01,4.553407767469681566e+00
1.322092026293226752e+01,5.931574767294458539e+00
1.324092597885110045e+01,5.916287264593450779e+00
1.326093169476993339e+01,4.730422887327341286e+00
1.328093741068876810e+01,5.938609424591725805e+00
1.330094312660760281e+01,5.032395034129899081e+00
1.332094884252643574e+01,5.714976551346959255e+00
1.334095455844527045e+01,4.250902595287747054e+00
1.336096027436410338e+01,5.975298793951049348e+00
1.338096599028293809e+01,4.384726056628846180e+00
1.340097170620177280e+01,4.247877169563986754e+00
1.342097742212060574e+01,5.138741211467400483e+00
1.344098313803944045e+01,4.815585112078968777e+00
1.346098885395827338e+01,5.266325147379576244e+00
1.348099456987710809e+01,5.009742420041210842e+00
1.350100028579594280e+01,4.235785345759115472e+00
1.352100600171477573e+01,4.256145047499254375e+00
1.354101171763361044e+01,5.841460490466296562e+00
1.356101743355244338e+01,5.265166383382532622e+00
1.358102314947127809e+01,4.376965837188492081e+00
1.360102886539011102e+01,5.081041810360376054e+00
1.362103458130894573e+01,5.127834864514539959e+00
1.364104029722777867e+01,5.793555080021155490e+00
1.366104601314661338e+01,4.580527420738709665e+00
1.368105172906544809e+01,4.347473686135118420e+00
1.370105744498428102e+01,5.517229720293344464e+00
1.372106316090311573e+01,5.835029661508507992e+00
1.374106887682194866e+01,4.060536693150442744e+00
1.376107459274078337e+01,5.745786897541110605e+00
1.378108030865961808e+01,4.560265744426094336e+00
1.380108602457845102e+01,5.030336157327189639e+00
1.382109174049728573e+01,5.384810026024221763e+00
1.384109745641611866e+01,4.738913977357154472e+00
1.386110317233495337e+01,4.457924716922957664e+00
1.388110888825378808e+01,5.747095813024169608e+00
1.390111460417262101e+01,4.637003675979169515e+00
1.392112032009145395e+01,3.893995676284916829e+00
1.394112603601028866e+01,5.749188124565884017e+00
1.396113175192912337e+01,5.264476223314692227e+00
1.398113746784795630e+01,4.273120303282762045e+00
1.400114318376679101e+01,5.666743575873566918e+00
1.402114889968562395e+01,5.061739280160239218e+00
1.404115461560445866e+01,5.721538077243280895e+00
1.406116033152329337e+01,3.862333764494485067e+00
1.408116604744212630e+01,4.731763803186094464e+00
1.410117176336095923e+01,4.682265517484064610e+00
1.412117747927979394e+01,4.121571099073563893e+00
1.414118319519862865e+01,5.131365910676073838e+00
1.416118891111746336e+01,5.531556290303517365e+00
1.418119462703629630e+01,4.252570393750231936e+00
1.420120034295512923e+01,4.446269031780110126e+00
1.422120605887396394e+01,5.272734718697078549e+00
1.424121177479279865e+01,5.687121308151542820e+00
1.426121749071163336e+01,4.324465027907311132e+00
1.428122320663046629e+01,4.842114041777670685e+00
1.430122892254929923e+01,4.655904421810785898e+00
1.432123463846813394e+01,5.570401715486752892e+00
1.434124035438696865e+01,3.920278055968010822e+00
1.436124607030580158e+01,3.941786920161511443e+00
1.438125178622463629e+01,5.145908750389217801e+00
1.440125750214346922e+01,4.797411354650993331e+00
1.442126321806230393e+01,4.526576958142925378e+00
1.444126893398113864e+01,5.498708431583600564e+00
1.446127464989997158e+01,4.425861462332835394e+00
1.448128036581880451e+01,5.172831903475298532e+00
1.450128608173763922e+01,5.311995667437295232e+00
1.452129179765647393e+01,5.293462917012640823e+00
1.454129751357530864e+01,5.389536652114490067e+00
1.456130322949414158e+01,4.797822638630813152e+00
1.458130894541297451e+01,3.941196242299635166e+00
1.460131466133180922e+01,4.106733941009307109e+00
1.462132037725064393e+01,3.920515152651582014e+00
1.464132609316947686e+01,4.934185422315547243e+00
1.466133180908831157e+01,4.696887708552465845e+00
1.468133752500714451e+01,4.204715239244386282e+00
1.470134324092597922e+01,3.907513166022586137e+00
1.472134895684481393e+01,3.990788030077789816e+00
1.474135467276364686e+01,3.942416565193023636e+00
1.476136038868247979e+01,4.707521130634321871e+00
1.478136610460131450e+01,5.195035300105439902e+00
1.480137182052014921e+01,4.624456629219931614e+00
1.482137753643898392e+01,3.776106455177924204e+00
1.484138325235781686e+01,4.476184415190662236e+00
1.486138896827664979e+01,4.683443763530735104e+00
1.488139468419548450e+01,3.919270884020805479e+00
1.490140040011431921e+01,4.398954304795425152e+00
1.492140611603315392e+01,3.865201870065147816e+00
1.494141183195198685e+01,5.543330767392977698e+00
1.496141754787081979e+01,4.173350793396887859e+00
1.498142326378965450e+01,3.640451872083819040e+00
1.500142897970848921e+01,4.260308529276271905e+00
1.502143469562732214e+01,4.920254156406763890e+00
1.504144041154615508e+01,5.177416226097597551e+00
1.506144612746498979e+01,4.740862178199067856e+00
1.508145184338382450e+01,4.856915168621093848e+00
1.510145755930265921e+01,4.234162173892378256e+00
1.512146327522149214e+01,4.590882349496022918e+00
1.514146899114032507e+01,3.917717466570867391e+00
1.516147470705915978e+01,4.147771365235826124e+00
1.518148042297799449e+01,5.241390491796778406e+00
1.520148613889682920e+01,4.226474687109702977e+00
1.522149185481566214e+01,4.113287977790485606e+00
1.524149757073449507e+01,4.881144137023702534e+00
1.526150328665332978e+01,4.791153210350890923e+00
1.528150900257216449e+01,4.340166628107669844e+00
1.530151471849099742e+01,3.808686216593931917e+00
1.532152043440983036e+01,3.895262403422113717e+00
1.534152615032866507e+01,3.865430354908144128e+00
1.536153186624749978e+01,5.508465363995433961e+00
1.538153758216633449e+01,4.505430739626152814e+00
1.540154329808516742e+01,4.225124793859030170e+00
1.542154901400400036e+01,4.493154074014515054e+00
1.544155472992283507e+01,4.920110393554882222e+00
1.546156044584166978e+01,3.699869496683950043e+00
1.548156616176050449e+01,5.251757456590677720e+00
1.550157187767933742e+01,4.627195463693580813e+00
1.552157759359817035e+01,3.764816827572043056e+00
1.554158330951700506e+01,5.352738066686083762e+00
1.556158902543583977e+01,4.006353514273857996e+00
1.558159474135467271e+01,3.693507437429629281e+00
1.560160045727350742e+01,4.695621668255137493e+00
1.562160617319234035e+01,3.651087489254221996e+00
1.564161188911117506e+01,3.992019546664320906e+00
1.566161760503000977e+01,3.697995157484053053e+00
1.568162332094884270e+01,5.177522806901052377e+00
1.570162903686767564e+01,3.660532735391815784e+00
1.572163475278651035e+01,3.922680772507893376e+00
1.574164046870534506e+01,4.241118114056368960e+00
1.576164618462417977e+01,5.225440954945201000e+00
1.578165190054301270e+01,5.524104655419268539e+00
1.580165761646184563e+01,5.424140991570865822e+00
1.582166333238068034e+01,5.057667390542855301e+00
1.584166904829951505e+01,4.368253760548520326e+00
1.586167476421834799e+01,3.994642997907899229e+00
1.588168048013718270e+01,5.205477301782428512e+00
1.590168619605601563e+01,4.953611495522348918e+00
1.592169191197485034e+01,4.748216391962770011e+00
1.594169762789368505e+01,5.416856140162692235e+00
1.596170334381251799e+01,5.670151857239582149e+00
1.598170905973135092e+01,4.835519309865146553e+00
1.600171477565018563e+01,4.932491734001542838e+00
1.602172049156902034e+01,4.189869890929904805e+00
1.604172620748785505e+01,4.474860202499630013e+00
1.606173192340668976e+01,5.515179794424606818e+00
1.608173763932552092e+01,4.770482103164479071e+00
1.610174335524435563e+01,4.646064405605290659e+00
1.612174907116319034e+01,4.634780004250933061e+00
1.614175478708202505e+01,5.314689617692497592e+00
1.616176050300085620e+01,5.063024222164703048e+00
1.618176621891969091e+01,5.970916195962164608e+00
1.620177193483852562e+01,4.641406555695986036e+00
1.622177765075736033e+01,4.892821747122332532e+00
1.624178336667619504e+01,6.412492201548027460e+00
1.626178908259502620e+01,6.410526603697667802e+00
1.628179479851386091e+01,5.499569032928430801e+00
1.630180051443269562e+01,6.687768566215499533e+00
1.632180623035153033e+01,5.429945139469188220e+00
1.634181194627036149e+01,6.640574084101972474e+00
1.636181766218919620e+01,5.625641843258628150e+00
1.638182337810803091e+01,6.296965471336272380e+00
1.640182909402686562e+01,6.874740885379192257e+00
1.642183480994570033e+01,6.418348406347400115e+00
1.644184052586453504e+01,7.274099664705718560e+00
1.646184624178336620e+01,5.930725243352484632e+00
1.648185195770220091e+01,6.528499779719663110e+00
1.650185767362103562e+01,7.678114164423948118e+00
1.652186338953986677e+01,7.441499956632431356e+00
1.654186910545870148e+01,8.477939334507386349e+00
1.656187482137753619e+01,8.755398754209887002e+00
1.658188053729637090e+01,7.669480677224387755e+00
1.660188625321520561e+01,8.959998711458791121e+00
1.662189196913404032e+01,9.393715355783518461e+00
1.664189768505287148e+01,8.460246255940637283e+00
1.666190340097170619e+01,9.383090699262808698e+00
1.668190911689054090e+01,8.787205429239786980e+00
1.670191483280937561e+01,1.062480227950877953e+01
1.672192054872820677e+01,1.074392694415227822e+01
1.674192626464704148e+01,1.008430150899885014e+01
1.676193198056587619e+01,1.058566058483532757e+01
1.678193769648471090e+01,1.181565741174765627e+01
1.680194341240354561e+01,1.190839631491767037e+01
1.682194912832238032e+01,1.104973984005478727e+01
1.684195484424121148e+01,1.252346711448271321e+01
1.686196056016004619e+01,1.372231990396956824e+01
1.688196627607888090e+01,1.257735268354411140e+01
1.690197199199771205e+01,1.308223448367450814e+01
1.692197770791654676e+01,1.365811452229110223e+01
1.694198342383538147e+01,1.551770483934126155e+01
1.696198913975421618e+01,1.506340830894478877e+01
1.698199485567305089e+01,1.552369100885199238e+01
1.700200057159188560e+01,1.708363830258929994e+01
1.702200628751071676e+01,1.765605309953123836e+01
1.704201200342955147e+01,1.787175168197103403e+01
1.706201771934838618e+01,1.934297923112515605e+01
1.708202343526722089e+01,2.027211642546054193e+01
1.710202915118605205e+01,1.948689614081861876e+01
1.712203486710488676e+01,2.013300546920673639e+01
1.714204058302372147e+01,2.082830500083480274e+01
1.716204629894255618e+01,2.197016266927949601e+01
1.718205201486139089e+01,2.416302583232236501e+01
1.720205773078022204e+01,2.363042186998310257e+01
1.722206344669905675e+01,2.574821277491070148e+01
1.724206916261789146e+01,2.615267179826703270e+01
1.726207487853672617e+01,2.753001763785952249e+01
1.728208059445555733e+01,2.856345011703953318e+01
1.730208631037439204e+01,2.854608743886443278e+01
1.732209202629322675e+01,3.034495200582350094e+01
1.734209774221206146e+01,3.092756443055829862e+01
1.736210345813089617e+01,3.265309080316413315e+01
1.738210917404973088e+01,3.265465080624677796e+01
1.740211488996856204e+01,3.482890953669588185e+01
1.742212060588739675e+01,3.651696748519989200e+01
1.744212632180623146e+01,3.803159485758069991e+01
1.746213203772506262e+01,3.784593899177064458e+01
1.748213775364389733e+01,3.904047461167874644e+01
1.750214346956273204e+01,4.085267875004930715e+01
1.752214918548156675e+01,4.226988184619103350e+01
1.754215490140040146e+01,4.455978129832914902e+01
1.756216061731923617e+01,4.580345687320424020e+01
1.758216633323806732e+01,4.754901288460851561e+01
1.760217204915690203e+01,4.741330400599945705e+01
1.762217776507573674e+01,4.957459208768445791e+01
1.764218348099457145e+01,5.197865349524887790e+01
1.766218919691340261e+01,5.216389234774310779e+01
1.768219491283223732e+01,5.460579455416548456e+01
1.770220062875107203e+01,5.638620612720350067e+01
1.772220634466990674e+01,5.734233662437596735e+01
1.774221206058874145e+01,5.831229712996105263e+01
1.776221777650757616e+01,5.875403804105008732e+01
1.778222349242640732e+01,6.116612039524412836e+01
1.780222920834524203e+01,6.169699705812990231e+01
1.782223492426407674e+01,6.228246818431323817e+01
1.784224064018290790e+01,6.364679577967206114e+01
1.786224635610174261e+01,6.364326228230434168e+01
1.788225207202057732e+01,6.304436073654137118e+01
1.790225778793941203e+01,6.321998953238968255e+01
1.792226350385824674e+01,6.350162139376638493e+01
1.794226921977708145e+01,6.436807951728563637e+01
1.796227493569591260e+01,6.327468629451037430e+01
