angle,intensity
1.000000000000000000e+01,4.963643940511733632e+01
1.002000571591883471e+01,4.909914768082625613e+01
1.004001143183766764e+01,4.892404567297270290e+01
1.006001714775650235e+01,4.925093823474705346e+01
1.008002286367533529e+01,4.895506400553788495e+01
1.010002857959417000e+01,4.828511821129142589e+01
1.012003429551300293e+01,4.808562995045147659e+01
1.014004001143183764e+01,4.690239003325191902e+01
1.016004572735067235e+01,4.701404823854241499e+01
1.018005144326950528e+01,4.573962554232033284e+01
1.020005715918833999e+01,4.480008932457174353e+01
1.022006287510717293e+01,4.435334858172168282e+01
1.024006859102600764e+01,4.258936470979139699e+01
1.026007430694484057e+01,4.113592197003357853e+01
1.028008002286367528e+01,3.947162942293446974e+01
1.030008573878250999e+01,3.826023166614724857e+01
1.032009145470134293e+01,3.634471820307086887e+01
1.034009717062017764e+01,3.434687335408042941e+01
1.036010288653901057e+01,3.191560839331201649e+01
1.038010860245784528e+01,3.051419597791465321e+01
1.040011431837667999e+01,2.796413322951067926e+01
1.042012003429551292e+01,2.572812982505985957e+01
1.044012575021434763e+01,2.402939681074425593e+01
1.046013146613318057e+01,2.199810228629617370e+01
1.048013718205201528e+01,2.019767769891669573e+01
1.050014289797084821e+01,1.862617230636159249e+01
1.052014861388968292e+01,1.708596615224185911e+01
1.054015432980851585e+01,1.595503732127308538e+01
1.056016004572735056e+01,1.479870101616238642e+01
1.058016576164618527e+01,1.390048167795755063e+01
1.060017147756501821e+01,1.230920551345498737e+01
1.062017719348385292e+01,1.176586120154445503e+01
1.064018290940268585e+01,1.132452097429989735e+01
1.066018862532152056e+01,1.070629883415579364e+01
1.068019434124035527e+01,9.769747988460100174e+00
1.070020005715918820e+01,9.927550677165310589e+00
1.072020577307802292e+01,9.612910276375043139e+00
1.074021148899685585e+01,8.392818215093411638e+00
1.076021720491569056e+01,9.108569376234889603e+00
1.078022292083452349e+01,7.579080130082807010e+00
1.080022863675335820e+01,7.877089311552539996e+00
1.082023435267219291e+01,7.532123709517482446e+00
1.084024006859102585e+01,6.862248737566642554e+00
1.086024578450986056e+01,7.080665570706301537e+00
1.088025150042869349e+01,6.026923836850933469e+00
1.090025721634752820e+01,5.510623772262460029e+00
1.092026293226636113e+01,6.318483828236983513e+00
1.094026864818519584e+01,5.898141561851143244e+00
1.096027436410403055e+01,5.488845592418717168e+00
1.098028008002286349e+01,5.700295635999307109e+00
1.100028579594169820e+01,5.544862031907367594e+00
1.102029151186053113e+01,5.085008916411204893e+00
1.104029722777936584e+01,4.854731902756251216e+00
1.106030294369819877e+01,4.597797347840291593e+00
1.108030865961703348e+01,4.303303608573387784e+00
1.110031437553586819e+01,4.676517169663429563e+00
1.112032009145470113e+01,4.810494556039374814e+00
1.114032580737353584e+01,5.206335387943112458e+00
1.116033152329236877e+01,4.247938045211991920e+00
1.118033723921120348e+01,4.700170993441046718e+00
1.120034295513003642e+01,3.752437287417564882e+00
1.122034867104887113e+01,3.545094654520970057e+00
1.124035438696770584e+01,3.758667970558350557e+00
1.126036010288653877e+01,4.359643493919350909e+00
1.128036581880537348e+01,3.537180721331461886e+00
1.130037153472420641e+01,3.600424919531707069e+00
1.132037725064304112e+01,3.199040237112818374e+00
1.134038296656187583e+01,3.363782943700003081e+00
1.136038868248070877e+01,3.749662473327287859e+00
1.138039439839954348e+01,3.817917321022185284e+00
1.140040011431837641e+01,3.524668605140558242e+00
1.142040583023721112e+01,3.502187361740543903e+00
1.144041154615604405e+01,3.888663806611711404e+00
1.146041726207487876e+01,3.048030657240162089e+00
1.148042297799371170e+01,3.509631622905217352e+00
1.150042869391254641e+01,3.775268439991718683e+00
1.152043440983138112e+01,2.935141457174391455e+00
1.154044012575021405e+01,3.338937112191951329e+00
1.156044584166904876e+01,3.186446621574220650e+00
1.158045155758788169e+01,3.752235926587018433e+00
1.160045727350671640e+01,3.282638598342233482e+00
1.162046298942555111e+01,2.686590060947970482e+00
1.164046870534438405e+01,3.028924800419864560e+00
1.166047442126321876e+01,3.018021017698871766e+00
1.168048013718205169e+01,2.619646933128645827e+00
1.170048585310088640e+01,2.639255867743052875e+00
1.172049156901971934e+01,3.197506537795661075e+00
1.174049728493855405e+01,2.825594101437491457e+00
1.176050300085738698e+01,3.040752517314770920e+00
1.178050871677622169e+01,2.115004133026042510e+00
1.180051443269505640e+01,3.454992321017804180e+00
1.182052014861388933e+01,3.369017424516384196e+00
1.184052586453272404e+01,2.281709962918840429e+00
1.186053158045155698e+01,2.789989444771407090e+00
1.188053729637039169e+01,2.254323926447865833e+00
1.190054301228922640e+01,2.464639519831068881e+00
1.192054872820805933e+01,2.513718445284459424e+00
1.194055444412689404e+01,2.398859463819131843e+00
1.196056016004572697e+01,2.847015775455337128e+00
1.198056587596456168e+01,2.508414022356394657e+00
1.200057159188339639e+01,3.069197342254424754e+00
1.202057730780222933e+01,2.756518479939027877e+00
1.204058302372106226e+01,2.886259309625329728e+00
1.206058873963989697e+01,2.605794824699273704e+00
1.208059445555873168e+01,1.833362057220513819e+00
1.210060017147756461e+01,2.667824496112379151e+00
1.212060588739639932e+01,3.035918556931648027e+00
1.214061160331523226e+01,2.435580390069394863e+00
1.216061731923406697e+01,3.325512589926527873e+00
1.218062303515290168e+01,1.776980995317637202e+00
1.220062875107173461e+01,2.656873141785887515e+00
1.222063446699056932e+01,1.988867223565693454e+00
1.224064018290940226e+01,2.327775709657781356e+00
1.226064589882823697e+01,2.718414196594186372e+00
1.228065161474707168e+01,2.752784371780565120e+00
1.230065733066590461e+01,2.950108055115562955e+00
1.232066304658473754e+01,2.691056987349328189e+00
1.234066876250357225e+01,2.465289955319952320e+00
1.236067447842240696e+01,3.412156792272826422e+00
1.238068019434123990e+01,2.793484075514702347e+00
1.240068591026007461e+01,2.254464732053162557e+00
1.242069162617890754e+01,2.216379156692913632e+00
1.244069734209774225e+01,2.758736980625633883e+00
1.246070305801657696e+01,2.758333819188209191e+00
1.248070877393540989e+01,3.023343763514747096e+00
1.250071448985424460e+01,2.948044390507153167e+00
1.252072020577307754e+01,2.319098341580505096e+00
1.254072592169191225e+01,3.157668592109287964e+00
1.256073163761074696e+01,2.684002317894920608e+00
1.258073735352957989e+01,2.126159342681762432e+00
1.260074306944841460e+01,3.047111896452817881e+00
1.262074878536724754e+01,2.531891174187150817e+00
1.264075450128608225e+01,2.078639920337468805e+00
1.266076021720491518e+01,2.589813633343942101e+00
1.268076593312374989e+01,2.930998355283155554e+00
1.270077164904258282e+01,3.044959801579802949e+00
1.272077736496141753e+01,2.475394657233898066e+00
1.274078308088025224e+01,2.286464237248145626e+00
1.276078879679908518e+01,3.005970932543510443e+00
1.278079451271791989e+01,2.438150870251922786e+00
1.280080022863675282e+01,2.019846761916479494e+00
1.282080594455558753e+01,1.923324040542573776e+00
1.284081166047442224e+01,2.159599828508449892e+00
1.286081737639325517e+01,3.107439120391440213e+00
1.288082309231208988e+01,2.576194601190127109e+00
1.290082880823092282e+01,1.865144757250469798e+00
1.292083452414975753e+01,1.987181769699673639e+00
1.294084024006859224e+01,2.677531852098155696e+00
1.296084595598742517e+01,2.854989316463540483e+00
1.298085167190625810e+01,2.640320342557255007e+00
1.300085738782509281e+01,2.902480561116920654e+00
1.302086310374392752e+01,2.669663632459774227e+00
1.304086881966276046e+01,2.472366042141048048e+00
1.306087453558159517e+01,2.166270853347588066e+00
1.308088025150042810e+01,2.645712940225093845e+00
1.310088596741926281e+01,1.783123481091275941e+00
1.312089168333809752e+01,3.150859010599981413e+00
1.314089739925693046e+01,2.641410353555043500e+00
1.316090311517576517e+01,2.995696822872518261e+00
1.318090883109459810e+01,2.815624557815215923e+00
1.320091454701343281e+01,2.608769507393746245e+00
1.322092026293226752e+01,2.666282159096901694e+00
1.324092597885110045e+01,2.954222935994507360e+00
1.326093169476993339e+01,2.110356288030989624e+00
1.328093741068876810e+01,1.772385620269812501e+00
1.330094312660760281e+01,2.354873805288790756e+00
1.332094884252643574e+01,2.063379629767045920e+00
1.334095455844527045e+01,2.190833491717111947e+00
1.336096027436410338e+01,2.733315799088361864e+00
1.338096599028293809e+01,3.262547815802865792e+00
1.340097170620177280e+01,2.314551557220124955e+00
1.342097742212060574e+01,2.240731638800886216e+00
1.344098313803944045e+01,2.436227888232540106e+00
1.346098885395827338e+01,2.959109662774085159e+00
1.348099456987710809e+01,3.372548708119657679e+00
1.350100028579594280e+01,2.590874332479204512e+00
1.352100600171477573e+01,2.435541550024769908e+00
1.354101171763361044e+01,2.046205622146080927e+00
1.356101743355244338e+01,2.954458235009538303e+00
1.358102314947127809e+01,2.145012004210571810e+00
1.360102886539011102e+01,2.613223462273520425e+00
1.362103458130894573e+01,2.294168137030963450e+00
1.364104029722777867e+01,2.773578430943057338e+00
1.366104601314661338e+01,2.365113924431366144e+00
1.368105172906544809e+01,3.412939638673382792e+00
1.370105744498428102e+01,3.097098076035599945e+00
1.372106316090311573e+01,2.489595231474249548e+00
1.374106887682194866e+01,2.591310288068934042e+00
1.376107459274078337e+01,2.516614595492020712e+00
1.378108030865961808e+01,2.572589891995476385e+00
1.380108602457845102e+01,3.095187128534347298e+00
1.382109174049728573e+01,2.084061754185025706e+00
1.384109745641611866e+01,2.338285188802860404e+00
1.386110317233495337e+01,3.103180462671231155e+00
1.388110888825378808e+01,2.765044845125435025e+00
1.390111460417262101e+01,3.343746267517980542e+00
1.392112032009145395e+01,3.039501825069440777e+00
1.394112603601028866e+01,3.137521094264250188e+00
1.396113175192912337e+01,3.052770692758393078e+00
1.398113746784795630e+01,3.159089475275211001e+00
1.400114318376679101e+01,3.139692197617614422e+00
1.402114889968562395e+01,3.110041186997388962e+00
1.404115461560445866e+01,3.315001568398956433e+00
1.406116033152329337e+01,3.081647659101421688e+00
1.408116604744212630e+01,3.725533675862937155e+00
1.410117176336095923e+01,3.542140474512968318e+00
1.412117747927979394e+01,3.610566181401130947e+00
1.414118319519862865e+01,3.979284529288634964e+00
1.416118891111746336e+01,3.948860514888458351e+00
1.418119462703629630e+01,3.348255840817610185e+00
1.420120034295512923e+01,3.642721183807739571e+00
1.422120605887396394e+01,3.772739372124655599e+00
1.424121177479279865e+01,3.388200419595880142e+00
1.426121749071163336e+01,3.665565031601546231e+00
1.428122320663046629e+01,3.344828282803296915e+00
1.430122892254929923e+01,3.324296154467257125e+00
1.432123463846813394e+01,3.931192983782469952e+00
1.434124035438696865e+01,3.690494728941973612e+00
1.436124607030580158e+01,3.805135806549448052e+00
1.438125178622463629e+01,3.921021239041125206e+00
1.440125750214346922e+01,3.661530848735909949e+00
1.442126321806230393e+01,4.211119997926565439e+00
1.444126893398113864e+01,3.754878796129152985e+00
1.446127464989997158e+01,3.530161395795454737e+00
1.448128036581880451e+01,4.783061931912711451e+00
1.450128608173763922e+01,3.693963655012064251e+00
1.452129179765647393e+01,4.712615324099326486e+00
1.454129751357530864e+01,4.458439561373729987e+00
1.456130322949414158e+01,5.154474546111810440e+00
1.458130894541297451e+01,4.254902983216513945e+00
1.460131466133180922e+01,4.273877760745810050e+00
1.462132037725064393e+01,4.535074912694838645e+00
1.464132609316947686e+01,4.345836725141467127e+00
1.466133180908831157e+01,4.708239891078649819e+00
1.468133752500714451e+01,5.432918995524017802e+00
1.470134324092597922e+01,4.501333981878007151e+00
1.472134895684481393e+01,5.230228519980927970e+00
1.474135467276364686e+01,4.938850796523912123e+00
1.476136038868247979e+01,5.845031543503445448e+00
1.478136610460131450e+01,5.154406810782666604e+00
1.480137182052014921e+01,6.101173488137620282e+00
1.482137753643898392e+01,5.127632578336839941e+00
1.484138325235781686e+01,5.282597466520170926e+00
1.486138896827664979e+01,5.749936021118550400e+00
1.488139468419548450e+01,5.620781377680907909e+00
1.490140040011431921e+01,5.896867769655960601e+00
1.492140611603315392e+01,5.508943706618513403e+00
1.494141183195198685e+01,5.599323191406248235e+00
1.496141754787081979e+01,5.595596924682638473e+00
1.498142326378965450e+01,6.236369118357327324e+00
1.500142897970848921e+01,6.747799984911132753e+00
1.502143469562732214e+01,6.216750111706508264e+00
1.504144041154615508e+01,6.220816502474393772e+00
1.506144612746498979e+01,6.692249393025352155e+00
1.508145184338382450e+01,6.473996484663837592e+00
1.510145755930265921e+01,6.618708453882646836e+00
1.512146327522149214e+01,7.297104581007539892e+00
1.514146899114032507e+01,6.817121784492184311e+00
1.516147470705915978e+01,6.975564993944955106e+00
1.518148042297799449e+01,6.537510813103643237e+00
1.520148613889682920e+01,7.302282488907949620e+00
1.522149185481566214e+01,7.283960086464874806e+00
1.524149757073449507e+01,7.843671794932309815e+00
1.526150328665332978e+01,6.756282752926573210e+00
1.528150900257216449e+01,7.007799247548053501e+00
1.530151471849099742e+01,7.530772483218685309e+00
1.532152043440983036e+01,7.343234714244507799e+00
1.534152615032866507e+01,8.589355027131436060e+00
1.536153186624749978e+01,8.648890154062206292e+00
1.538153758216633449e+01,7.804307049880930158e+00
1.540154329808516742e+01,8.583310004782980229e+00
1.542154901400400036e+01,7.587944043468382915e+00
1.544155472992283507e+01,7.429046210546822238e+00
1.546156044584166978e+01,7.670210898267898258e+00
1.548156616176050449e+01,8.051720147527536398e+00
1.550157187767933742e+01,8.128780114129071421e+00
1.552157759359817035e+01,8.438323229527901148e+00
1.554158330951700506e+01,8.702333634228690329e+00
1.556158902543583977e+01,7.677254131174345630e+00
1.558159474135467271e+01,8.178071634626707720e+00
1.560160045727350742e+01,8.029812047630734639e+00
1.562160617319234035e+01,8.176885600320110470e+00
1.564161188911117506e+01,7.782584899085859931e+00
1.566161760503000977e+01,7.030989153445098339e+00
1.568162332094884270e+01,6.690026722013813654e+00
1.570162903686767564e+01,7.142874509672386907e+00
1.572163475278651035e+01,7.086372099811563352e+00
1.574164046870534506e+01,7.180714088297541764e+00
1.576164618462417977e+01,5.598599459789589616e+00
1.578165190054301270e+01,6.769931456442037643e+00
1.580165761646184563e+01,6.050501337480059583e+00
1.582166333238068034e+01,5.702448125056765349e+00
1.584166904829951505e+01,5.530256568678193041e+00
1.586167476421834799e+01,5.473278591920864855e+00
1.588168048013718270e+01,5.661976291489406954e+00
1.590168619605601563e+01,5.240416388033463768e+00
1.592169191197485034e+01,4.550934967168906553e+00
1.594169762789368505e+01,4.329362616398262809e+00
1.596170334381251799e+01,4.432847614613899978e+00
1.598170905973135092e+01,5.185846186338078923e+00
1.600171477565018563e+01,5.814434891674037154e+00
1.602172049156902034e+01,4.204859031394403424e+00
1.604172620748785505e+01,5.556685802037745425e+00
1.606173192340668976e+01,4.268428721225180134e+00
1.608173763932552092e+01,4.699708263746682491e+00
1.610174335524435563e+01,5.502041942114178852e+00
1.612174907116319034e+01,4.507789820524340740e+00
1.614175478708202505e+01,4.747112665905561357e+00
1.616176050300085620e+01,4.310592046473182393e+00
1.618176621891969091e+01,5.481879264906805105e+00
1.620177193483852562e+01,4.552958071322216860e+00
1.622177765075736033e+01,4.846910206268443488e+00
1.624178336667619504e+01,4.829664735655796903e+00
1.626178908259502620e+01,4.242644007973229492e+00
1.628179479851386091e+01,4.262798921926064466e+00
1.630180051443269562e+01,4.738169971783134926e+00
1.632180623035153033e+01,5.432565628411386349e+00
1.634181194627036149e+01,4.624879007628512895e+00
1.636181766218919620e+01,4.724802431839480121e+00
1.638182337810803091e+01,4.504367556539792261e+00
1.640182909402686562e+01,4.035310930462862267e+00
1.642183480994570033e+01,4.396093821131968227e+00
1.644184052586453504e+01,4.850535101040188479e+00
1.646184624178336620e+01,4.520466184197488246e+00
1.648185195770220091e+01,4.412296815863159694e+00
1.650185767362103562e+01,4.597931467854824206e+00
1.652186338953986677e+01,5.262795360236912856e+00
1.654186910545870148e+01,4.592861265938124049e+00
1.656187482137753619e+01,4.998695733081522263e+00
1.658188053729637090e+01,4.845605013273475592e+00
1.660188625321520561e+01,5.039948274933303551e+00
1.662189196913404032e+01,4.309485058938959057e+00
1.664189768505287148e+01,5.422815934623714362e+00
1.666190340097170619e+01,4.831343240139884365e+00
1.668190911689054090e+01,5.399565225588536244e+00
1.670191483280937561e+01,4.874761488024660139e+00
1.672192054872820677e+01,5.181653290013365165e+00
1.674192626464704148e+01,4.608360383207310562e+00
1.676193198056587619e+01,4.785981383729373206e+00
1.678193769648471090e+01,5.039475768473860029e+00
1.680194341240354561e+01,4.927017831071332843e+00
1.682194912832238032e+01,4.206845177929898760e+00
1.684195484424121148e+01,4.995289295647991068e+00
1.686196056016004619e+01,4.430020038823997197e+00
1.688196627607888090e+01,5.233982811548886893e+00
1.690197199199771205e+01,4.581872936072608482e+00
1.692197770791654676e+01,4.497456643580883373e+00
1.694198342383538147e+01,4.790418804074274561e+00
1.696198913975421618e+01,3.909584434195075620e+00
1.698199485567305089e+01,4.115981644074194534e+00
1.700200057159188560e+01,4.611257224401171584e+00
1.702200628751071676e+01,3.410434211806101956e+00
1.704201200342955147e+01,3.995037543674419211e+00
1.706201771934838618e+01,4.049074486341761592e+00
1.708202343526722089e+01,4.527493535612997277e+00
1.710202915118605205e+01,3.765315671504567696e+00
1.712203486710488676e+01,3.253950040121512455e+00
1.714204058302372147e+01,3.762089527185053850e+00
1.716204629894255618e+01,3.277476175276291315e+00
1.718205201486139089e+01,3.856581743871722701e+00
1.720205773078022204e+01,3.403969766017937992e+00
1.722206344669905675e+01,3.820170063503381730e+00
1.724206916261789146e+01,3.582403404401198976e+00
1.726207487853672617e+01,3.372733281951749262e+00
1.728208059445555733e+01,4.278032650325687136e+00
1.730208631037439204e+01,3.752024430874831840e+00
1.732209202629322675e+01,3.674019665064547802e+00
1.734209774221206146e+01,3.743119635189793293e+00
1.736210345813089617e+01,4.217630899063395056e+00
1.738210917404973088e+01,3.420644039841805650e+00
1.740211488996856204e+01,3.611388339835503558e+00
1.742212060588739675e+01,2.823591563676544958e+00
1.744212632180623146e+01,3.887221400322988352e+00
1.746213203772506262e+01,3.709545153714726595e+00
1.748213775364389733e+01,3.347733609139502242e+00
1.750214346956273204e+01,3.544059744025717329e+00
1.752214918548156675e+01,3.659000692619286177e+00
1.754215490140040146e+01,3.510485416800973368e+00
1.756216061731923617e+01,3.685252723951099263e+00
1.758216633323806732e+01,3.650788861401712104e+00
1.760217204915690203e+01,3.605296935924593438e+00
1.762217776507573674e+01,3.688714598209392737e+00
1.764218348099457145e+01,3.329066335613396266e+00
1.766218919691340261e+01,3.460337283241768702e+00
1.768219491283223732e+01,2.938970996354437482e+00
1.770220062875107203e+01,3.284390961500739614e+00
1.772220634466990674e+01,3.689504277945992783e+00
1.774221206058874145e+01,2.994327704558972680e+00
1.776221777650757616e+01,3.887976620474977274e+00
1.778222349242640732e+01,2.696141299021361792e+00
1.780222920834524203e+01,3.535815599579644086e+00
1.782223492426407674e+01,3.466276365367068735e+00
1.784224064018290790e+01,3.938383043698602037e+00
1.786224635610174261e+01,4.102562233188609575e+00
1.788225207202057732e+01,3.746462799344751016e+00
1.790225778793941203e+01,3.191540942991738738e+00
1.792226350385824674e+01,3.109933249352885287e+00
1.794226921977708145e+01,4.052889585907363923e+00
1.796227493569591260e+01,3.989006449113531971e+00
