angle,intensity
1.000000000000000000e+01,7.106299389808198441e+01
1.002000571591883471e+01,7.414558665464898013e+01
1.004001143183766764e+01,7.330638444567628653e+01
1.006001714775650235e+01,7.363947226264244250e+01
1.008002286367533529e+01,7.265683300550458057e+01
1.010002857959417000e+01,7.160776560153470882e+01
1.012003429551300293e+01,7.130964931627958947e+01
1.014004001143183764e+01,7.018842625062016793e+01
1.016004572735067235e+01,6.884117024588155687e+01
1.018005144326950528e+01,6.637785556042487656e+01
1.020005715918833999e+01,6.475891843004397685e+01
1.022006287510717293e+01,6.196577663817697612e+01
1.024006859102600764e+01,6.003900841250784026e+01
1.026007430694484057e+01,5.658493006175308437e+01
1.028008002286367528e+01,5.412976670822902037e+01
1.030008573878250999e+01,5.087363740519244004e+01
1.032009145470134293e+01,4.737088809365782538e+01
1.034009717062017764e+01,4.453910257040686815e+01
1.036010288653901057e+01,4.026443458792266483e+01
1.038010860245784528e+01,3.802394686588694128e+01
1.040011431837667999e+01,3.569122761408780775e+01
1.042012003429551292e+01,3.310386865608452922e+01
1.044012575021434763e+01,3.168095245359541678e+01
1.046013146613318057e+01,3.032306007171111872e+01
1.048013718205201528e+01,2.879687603801862039e+01
1.050014289797084821e+01,2.734366160412844948e+01
1.052014861388968292e+01,2.619087041962963269e+01
1.054015432980851585e+01,2.631185828868772347e+01
1.056016004572735056e+01,2.562822896670623507e+01
1.058016576164618527e+01,2.436877247605141150e+01
1.060017147756501821e+01,2.447208521392377634e+01
1.062017719348385292e+01,2.491346480432217803e+01
1.064018290940268585e+01,2.438905905635102300e+01
1.066018862532152056e+01,2.505856218051366824e+01
1.068019434124035527e+01,2.550908115987585489e+01
1.070020005715918820e+01,2.629309206494663442e+01
1.072020577307802292e+01,2.608784722264920219e+01
1.074021148899685585e+01,2.711214231876698477e+01
1.076021720491569056e+01,2.592847737384882123e+01
1.078022292083452349e+01,2.769028908998589955e+01
1.080022863675335820e+01,2.721728945840731484e+01
1.082023435267219291e+01,2.843649363085402371e+01
1.084024006859102585e+01,2.808053799647942483e+01
1.086024578450986056e+01,2.806319032718333872e+01
1.088025150042869349e+01,2.957088662563816328e+01
1.090025721634752820e+01,2.998250706430027179e+01
1.092026293226636113e+01,3.132091910668940926e+01
1.094026864818519584e+01,3.147277892681012190e+01
1.096027436410403055e+01,3.211419613512192228e+01
1.098028008002286349e+01,3.275836551672979624e+01
1.100028579594169820e+01,3.329936327134637963e+01
1.102029151186053113e+01,3.459456108355415438e+01
1.104029722777936584e+01,3.455410422320669994e+01
1.106030294369819877e+01,3.558774071112011228e+01
1.108030865961703348e+01,3.670770352422573524e+01
1.110031437553586819e+01,3.692009203348280977e+01
1.112032009145470113e+01,3.780998065064261482e+01
1.114032580737353584e+01,3.808994824910611499e+01
1.116033152329236877e+01,3.941927929705956046e+01
1.118033723921120348e+01,4.006783839662000446e+01
1.120034295513003642e+01,4.160617468008425845e+01
1.122034867104887113e+01,4.214347110625399750e+01
1.124035438696770584e+01,4.336076440049879466e+01
1.126036010288653877e+01,4.435191684990272876e+01
1.128036581880537348e+01,4.579112986808564756e+01
1.130037153472420641e+01,4.549923296170950948e+01
1.132037725064304112e+01,4.689300154657344422e+01
1.134038296656187583e+01,4.898006362496142430e+01
1.136038868248070877e+01,4.934980992572877767e+01
1.138039439839954348e+01,5.094554378926949312e+01
1.140040011431837641e+01,5.167420353323346660e+01
1.142040583023721112e+01,5.289740933489733266e+01
1.144041154615604405e+01,5.412254390232097023e+01
1.146041726207487876e+01,5.521834239960683988e+01
1.148042297799371170e+01,5.682013556822214184e+01
1.150042869391254641e+01,5.758482176732464097e+01
1.152043440983138112e+01,5.886730449774212559e+01
1.154044012575021405e+01,5.944809232765446438e+01
1.156044584166904876e+01,6.131086895759048616e+01
1.158045155758788169e+01,6.287142491781951037e+01
1.160045727350671640e+01,6.426060910950506866e+01
1.162046298942555111e+01,6.565954446583089066e+01
1.164046870534438405e+01,6.628513534051758427e+01
1.166047442126321876e+01,6.836290343380025547e+01
1.168048013718205169e+01,6.937487872409124634e+01
1.170048585310088640e+01,7.075764946991724003e+01
1.172049156901971934e+01,7.169659394984290657e+01
1.174049728493855405e+01,7.272167514490908502e+01
1.176050300085738698e+01,7.443774128065416562e+01
1.178050871677622169e+01,7.474086058156723311e+01
1.180051443269505640e+01,7.599354549974898987e+01
1.182052014861388933e+01,7.679693579165007122e+01
1.184052586453272404e+01,7.821649823271252444e+01
1.186053158045155698e+01,7.770894456735933886e+01
1.188053729637039169e+01,7.867450717469981214e+01
1.190054301228922640e+01,7.908871545892912991e+01
1.192054872820805933e+01,7.902290380996925023e+01
1.194055444412689404e+01,8.000686435187679990e+01
1.196056016004572697e+01,7.903814290511691354e+01
1.198056587596456168e+01,7.913049787553265446e+01
1.200057159188339639e+01,7.823698663645417639e+01
1.202057730780222933e+01,7.774862485600155537e+01
1.204058302372106226e+01,7.583057323119936655e+01
1.206058873963989697e+01,7.526843830681394820e+01
1.208059445555873168e+01,7.341568447103372819e+01
1.210060017147756461e+01,7.291106955539706291e+01
1.212060588739639932e+01,7.059868988542467605e+01
1.214061160331523226e+01,6.951626972573396301e+01
1.216061731923406697e+01,6.791607920839521739e+01
1.218062303515290168e+01,6.657718404446552540e+01
1.220062875107173461e+01,6.455349773746395670e+01
1.222063446699056932e+01,6.343208389891610466e+01
1.224064018290940226e+01,6.185778129442046946e+01
1.226064589882823697e+01,6.153562610298991586e+01
1.228065161474707168e+01,6.027713150144303000e+01
1.230065733066590461e+01,6.043894673575492504e+01
1.232066304658473754e+01,6.075148203728421947e+01
1.234066876250357225e+01,6.067257115814648216e+01
1.236067447842240696e+01,6.118787939939183218e+01
1.238068019434123990e+01,6.158037113471785062e+01
1.240068591026007461e+01,6.343171054802803610e+01
1.242069162617890754e+01,6.401632117580211911e+01
1.244069734209774225e+01,6.548622028113265969e+01
1.246070305801657696e+01,6.694672824934508526e+01
1.248070877393540989e+01,6.805055052699017892e+01
1.250071448985424460e+01,6.873467107980729907e+01
1.252072020577307754e+01,7.057570200019995355e+01
1.254072592169191225e+01,7.165752669624438909e+01
1.256073163761074696e+01,7.287191335211784349e+01
1.258073735352957989e+01,7.457129177173706580e+01
1.260074306944841460e+01,7.588458600337094140e+01
1.262074878536724754e+01,7.798019491430204653e+01
1.264075450128608225e+01,7.877508970354730877e+01
1.266076021720491518e+01,8.086225214631028280e+01
1.268076593312374989e+01,8.207660429310497818e+01
1.270077164904258282e+01,8.363933940889280905e+01
1.272077736496141753e+01,8.595237646265121612e+01
1.274078308088025224e+01,8.625405303337574026e+01
1.276078879679908518e+01,8.781100628319620682e+01
1.278079451271791989e+01,8.946129334972171421e+01
1.280080022863675282e+01,9.132208038626194480e+01
1.282080594455558753e+01,9.288469796349022545e+01
1.284081166047442224e+01,9.367079966112879674e+01
1.286081737639325517e+01,9.451703583801018738e+01
1.288082309231208988e+01,9.606248204779700472e+01
1.290082880823092282e+01,9.625795878547779694e+01
1.292083452414975753e+01,9.754141861845354811e+01
1.294084024006859224e+01,9.754735294438654591e+01
1.296084595598742517e+01,9.897165053779028199e+01
1.298085167190625810e+01,9.944180331540836448e+01
1.300085738782509281e+01,9.947966368376458490e+01
1.302086310374392752e+01,9.914837204790559611e+01
1.304086881966276046e+01,1.000000000000000000e+02
1.306087453558159517e+01,9.960018810404045553e+01
1.308088025150042810e+01,9.944123141130208410e+01
1.310088596741926281e+01,9.958429336144203603e+01
1.312089168333809752e+01,9.836190023734708632e+01
1.314089739925693046e+01,9.887701580714815464e+01
1.316090311517576517e+01,9.758734290263936373e+01
1.318090883109459810e+01,9.756909195556644931e+01
1.320091454701343281e+01,9.731143956959439834e+01
1.322092026293226752e+01,9.658029348294766692e+01
1.324092597885110045e+01,9.556202562996699612e+01
1.326093169476993339e+01,9.577256582984817612e+01
1.328093741068876810e+01,9.510116462693179074e+01
1.330094312660760281e+01,9.440960816105787501e+01
1.332094884252643574e+01,9.275812348853223455e+01
1.334095455844527045e+01,9.087750591425643165e+01
1.336096027436410338e+01,9.021403399347019558e+01
1.338096599028293809e+01,8.892770032298815863e+01
1.340097170620177280e+01,8.703591222556542562e+01
1.342097742212060574e+01,8.432130641746492472e+01
1.344098313803944045e+01,8.247136790236679360e+01
1.346098885395827338e+01,7.972531320699863500e+01
1.348099456987710809e+01,7.755885596696847983e+01
1.350100028579594280e+01,7.482966783631778185e+01
1.352100600171477573e+01,7.235693224242758959e+01
1.354101171763361044e+01,6.982214977699375424e+01
1.356101743355244338e+01,6.775506076588264648e+01
1.358102314947127809e+01,6.623447875792581385e+01
1.360102886539011102e+01,6.364648754263531316e+01
1.362103458130894573e+01,6.230975970755557114e+01
1.364104029722777867e+01,6.090283691013978284e+01
1.366104601314661338e+01,5.891863022399974881e+01
1.368105172906544809e+01,5.793607546933004926e+01
1.370105744498428102e+01,5.800089808201763475e+01
1.372106316090311573e+01,5.635379284696065838e+01
1.374106887682194866e+01,5.538780162243970295e+01
1.376107459274078337e+01,5.542213399032776522e+01
1.378108030865961808e+01,5.332009240587083809e+01
1.380108602457845102e+01,5.200545029300629096e+01
1.382109174049728573e+01,5.112117218390371676e+01
1.384109745641611866e+01,5.045010651625197795e+01
1.386110317233495337e+01,4.914095054576951327e+01
1.388110888825378808e+01,4.717927687576549545e+01
1.390111460417262101e+01,4.581668404578235254e+01
1.392112032009145395e+01,4.409811839146448165e+01
1.394112603601028866e+01,4.214663334826138907e+01
1.396113175192912337e+01,3.997834991219026790e+01
1.398113746784795630e+01,3.842466429807858219e+01
1.400114318376679101e+01,3.610204589810045661e+01
1.402114889968562395e+01,3.415982241049849932e+01
1.404115461560445866e+01,3.288966716291379555e+01
1.406116033152329337e+01,3.066996872010970776e+01
1.408116604744212630e+01,2.874243028856377435e+01
1.410117176336095923e+01,2.691224207149578618e+01
1.412117747927979394e+01,2.493317991215215912e+01
1.414118319519862865e+01,2.395785601931920894e+01
1.416118891111746336e+01,2.308127348822176117e+01
1.418119462703629630e+01,2.153488920579016508e+01
1.420120034295512923e+01,2.025215709255953556e+01
1.422120605887396394e+01,1.924007052899477443e+01
1.424121177479279865e+01,1.802206521210869283e+01
1.426121749071163336e+01,1.659495092750774958e+01
1.428122320663046629e+01,1.514706025854101057e+01
1.430122892254929923e+01,1.362970701531221351e+01
1.432123463846813394e+01,1.277826574710853436e+01
1.434124035438696865e+01,1.295151605352896595e+01
1.436124607030580158e+01,1.117446423562423519e+01
1.438125178622463629e+01,9.939806008134890902e+00
1.440125750214346922e+01,9.542761047105152272e+00
1.442126321806230393e+01,9.273097461887907400e+00
1.444126893398113864e+01,8.185406069986616018e+00
1.446127464989997158e+01,8.278689077446422573e+00
1.448128036581880451e+01,7.254623606363905353e+00
1.450128608173763922e+01,7.771227561666327333e+00
1.452129179765647393e+01,6.795079671878700545e+00
1.454129751357530864e+01,7.232023702141802346e+00
1.456130322949414158e+01,6.218917280495340094e+00
1.458130894541297451e+01,5.943036411110149686e+00
1.460131466133180922e+01,6.221717761659153467e+00
1.462132037725064393e+01,5.488472761642808173e+00
1.464132609316947686e+01,6.403708784802825349e+00
1.466133180908831157e+01,5.749139282829017539e+00
1.468133752500714451e+01,5.861955936663253652e+00
1.470134324092597922e+01,5.785970675167488864e+00
1.472134895684481393e+01,5.516904676320616652e+00
1.474135467276364686e+01,5.926357563965675368e+00
1.476136038868247979e+01,5.951446836894549008e+00
1.478136610460131450e+01,5.909791064559843043e+00
1.480137182052014921e+01,5.986697792734984702e+00
1.482137753643898392e+01,5.318547272742642384e+00
1.484138325235781686e+01,5.545686042820794803e+00
1.486138896827664979e+01,5.561731324523026210e+00
1.488139468419548450e+01,5.377491962317662910e+00
1.490140040011431921e+01,5.840125170641653263e+00
1.492140611603315392e+01,5.742017103787986798e+00
1.494141183195198685e+01,5.623251235616308463e+00
1.496141754787081979e+01,5.090939064038218831e+00
1.498142326378965450e+01,5.841076658788670883e+00
1.500142897970848921e+01,5.833388580932520995e+00
1.502143469562732214e+01,5.231666298177257701e+00
1.504144041154615508e+01,4.388429841678783916e+00
1.506144612746498979e+01,5.174865776713271082e+00
1.508145184338382450e+01,5.062276458455543526e+00
1.510145755930265921e+01,4.574209469656873139e+00
1.512146327522149214e+01,4.704606359961363893e+00
1.514146899114032507e+01,5.195192124256243105e+00
1.516147470705915978e+01,5.334144633680637071e+00
1.518148042297799449e+01,4.972505080317867865e+00
1.520148613889682920e+01,5.181829419239770473e+00
1.522149185481566214e+01,5.889136868297168093e+00
1.524149757073449507e+01,5.690586150098909890e+00
1.526150328665332978e+01,6.304626798954870104e+00
1.528150900257216449e+01,5.784471234721519473e+00
1.530151471849099742e+01,4.884385569255250914e+00
1.532152043440983036e+01,5.402202151842658395e+00
1.534152615032866507e+01,5.554492700430066598e+00
1.536153186624749978e+01,5.192623971113642156e+00
1.538153758216633449e+01,6.390819695975379133e+00
1.540154329808516742e+01,5.793096111637947132e+00
1.542154901400400036e+01,6.004254559089487131e+00
1.544155472992283507e+01,5.591934394552146692e+00
1.546156044584166978e+01,5.775932436025338568e+00
1.548156616176050449e+01,6.342104106981350853e+00
1.550157187767933742e+01,6.346471108898516178e+00
1.552157759359817035e+01,6.435942073022503429e+00
1.554158330951700506e+01,6.015628486428143518e+00
1.556158902543583977e+01,6.527178147689392418e+00
1.558159474135467271e+01,6.541293959754197473e+00
1.560160045727350742e+01,6.165471761324401001e+00
1.562160617319234035e+01,6.811285062298914283e+00
1.564161188911117506e+01,6.555518519842655323e+00
1.566161760503000977e+01,6.781256109030794121e+00
1.568162332094884270e+01,6.814541929594524206e+00
1.570162903686767564e+01,7.066874870617114723e+00
1.572163475278651035e+01,7.745619801054919762e+00
1.574164046870534506e+01,6.749451370973691411e+00
1.576164618462417977e+01,6.835501800812491702e+00
1.578165190054301270e+01,7.313366886024900815e+00
1.580165761646184563e+01,7.308328483778975482e+00
1.582166333238068034e+01,7.170176492792942113e+00
1.584166904829951505e+01,7.293341941063347988e+00
1.586167476421834799e+01,8.026181783567109207e+00
1.588168048013718270e+01,7.230865561621456550e+00
1.590168619605601563e+01,7.748780851298944228e+00
1.592169191197485034e+01,8.727710961195580097e+00
1.594169762789368505e+01,7.608990935458253446e+00
1.596170334381251799e+01,8.043919314516319474e+00
1.598170905973135092e+01,9.012960405596903257e+00
1.600171477565018563e+01,8.156151460523677343e+00
1.602172049156902034e+01,8.647613703826614540e+00
1.604172620748785505e+01,8.896991767128270112e+00
1.606173192340668976e+01,9.802850456575971094e+00
1.608173763932552092e+01,9.701170355805807333e+00
1.610174335524435563e+01,9.109010387683884602e+00
1.612174907116319034e+01,9.743555515136392842e+00
1.614175478708202505e+01,9.433146032966078565e+00
1.616176050300085620e+01,1.021417217645939601e+01
1.618176621891969091e+01,1.042299302684377160e+01
1.620177193483852562e+01,1.035570703865101905e+01
1.622177765075736033e+01,1.092761417284180681e+01
1.624178336667619504e+01,1.150708246530796330e+01
1.626178908259502620e+01,1.135747835230395708e+01
1.628179479851386091e+01,1.164202971927572605e+01
1.630180051443269562e+01,1.196249505704563454e+01
1.632180623035153033e+01,1.214434510339462037e+01
1.634181194627036149e+01,1.318386424995387074e+01
1.636181766218919620e+01,1.242485591755059993e+01
1.638182337810803091e+01,1.270825311502031951e+01
1.640182909402686562e+01,1.398146854557782248e+01
1.642183480994570033e+01,1.351659506169052527e+01
1.644184052586453504e+01,1.361314411457508022e+01
1.646184624178336620e+01,1.455174383868828336e+01
1.648185195770220091e+01,1.476127502894080834e+01
1.650185767362103562e+01,1.460684888403946147e+01
1.652186338953986677e+01,1.543543444925958141e+01
1.654186910545870148e+01,1.518239392076990946e+01
1.656187482137753619e+01,1.573327994205924796e+01
1.658188053729637090e+01,1.483876702370692513e+01
1.660188625321520561e+01,1.481062386607609582e+01
1.662189196913404032e+01,1.609553387288218573e+01
1.664189768505287148e+01,1.562916927973050818e+01
1.666190340097170619e+01,1.569511621418258684e+01
1.668190911689054090e+01,1.526247304783595737e+01
1.670191483280937561e+01,1.484386864571759368e+01
1.672192054872820677e+01,1.506680100795703225e+01
1.674192626464704148e+01,1.460908858440637736e+01
1.676193198056587619e+01,1.422720319460355931e+01
1.678193769648471090e+01,1.421211501373673514e+01
1.680194341240354561e+01,1.360763283022641446e+01
1.682194912832238032e+01,1.358855253335692836e+01
1.684195484424121148e+01,1.284727149667393320e+01
1.686196056016004619e+01,1.322340989898880537e+01
1.688196627607888090e+01,1.248226512108137243e+01
1.690197199199771205e+01,1.122855015290718939e+01
1.692197770791654676e+01,1.102352882233014952e+01
1.694198342383538147e+01,1.085602156092270221e+01
1.696198913975421618e+01,1.058596555987232612e+01
1.698199485567305089e+01,1.119572724419435694e+01
1.700200057159188560e+01,9.671450791554764947e+00
1.702200628751071676e+01,1.065212371140373726e+01
1.704201200342955147e+01,1.023022456647577982e+01
1.706201771934838618e+01,9.435757497649117198e+00
1.708202343526722089e+01,9.783871608451278234e+00
1.710202915118605205e+01,1.011458437297280000e+01
1.712203486710488676e+01,1.064386202341820109e+01
1.714204058302372147e+01,1.037964591821831384e+01
1.716204629894255618e+01,9.836073994912464258e+00
1.718205201486139089e+01,1.010457402773279867e+01
1.720205773078022204e+01,1.070413332416985774e+01
1.722206344669905675e+01,1.012835522657464793e+01
1.724206916261789146e+01,1.145881758129387151e+01
1.726207487853672617e+01,1.149691553934592214e+01
1.728208059445555733e+01,1.119065034210417409e+01
1.730208631037439204e+01,1.175279149057979211e+01
1.732209202629322675e+01,1.232454359118016285e+01
1.734209774221206146e+01,1.261435828653783986e+01
1.736210345813089617e+01,1.244032741861690639e+01
1.738210917404973088e+01,1.295258170581643853e+01
1.740211488996856204e+01,1.352287282374323141e+01
1.742212060588739675e+01,1.303573694112521153e+01
1.744212632180623146e+01,1.313545808153884131e+01
1.746213203772506262e+01,1.315571904743828568e+01
1.748213775364389733e+01,1.425307361888359026e+01
1.750214346956273204e+01,1.332489792735665191e+01
1.752214918548156675e+01,1.413648846106532986e+01
1.754215490140040146e+01,1.442245352937930214e+01
1.756216061731923617e+01,1.451218841044673979e+01
1.758216633323806732e+01,1.532697429231602371e+01
1.760217204915690203e+01,1.500198977820404878e+01
1.762217776507573674e+01,1.442082944799015820e+01
1.764218348099457145e+01,1.524593763672317870e+01
1.766218919691340261e+01,1.400877682327949891e+01
1.768219491283223732e+01,1.390873085157084788e+01
1.770220062875107203e+01,1.380115793528463897e+01
1.772220634466990674e+01,1.423829221449154936e+01
1.774221206058874145e+01,1.387270022687839699e+01
1.776221777650757616e+01,1.373512050503319415e+01
1.778222349242640732e+01,1.394983089393867459e+01
1.780222920834524203e+01,1.283214697503818869e+01
1.782223492426407674e+01,1.205905970204639388e+01
1.784224064018290790e+01,1.206662090738275950e+01
1.786224635610174261e+01,1.200668573703586617e+01
1.788225207202057732e+01,1.067263385996590586e+01
1.790225778793941203e+01,1.112288950292402134e+01
1.792226350385824674e+01,1.026680894241582465e+01
1.794226921977708145e+01,1.043421310274745295e+01
1.796227493569591260e+01,1.018471513444135823e+01
