angle,intensity
1.000000000000000000e+01,8.945681279700696109e+01
1.002000571591883471e+01,9.067974246440712704e+01
1.004001143183766764e+01,9.243121448455100619e+01
1.006001714775650235e+01,9.323492106829829140e+01
1.008002286367533529e+01,9.341227569261127428e+01
1.010002857959417000e+01,9.341015542518101711e+01
1.012003429551300293e+01,9.356766367915271587e+01
1.014004001143183764e+01,9.388905461776658967e+01
1.016004572735067235e+01,9.322844919244958817e+01
1.018005144326950528e+01,9.385787572789777755e+01
1.020005715918833999e+01,9.297427125834826711e+01
1.022006287510717293e+01,9.251352310133717083e+01
1.024006859102600764e+01,9.081049657303807976e+01
1.026007430694484057e+01,8.995650301981194730e+01
1.028008002286367528e+01,8.777883835403306989e+01
1.030008573878250999e+01,8.452211973841292547e+01
1.032009145470134293e+01,8.228808900194596276e+01
1.034009717062017764e+01,7.884896298637161749e+01
1.036010288653901057e+01,7.513323521217807865e+01
1.038010860245784528e+01,7.114407126851861562e+01
1.040011431837667999e+01,6.538506164613050942e+01
1.042012003429551292e+01,6.029245978518973459e+01
1.044012575021434763e+01,5.423814518985959410e+01
1.046013146613318057e+01,4.953242885654096028e+01
1.048013718205201528e+01,4.336068525201233115e+01
1.050014289797084821e+01,3.786322155585192206e+01
1.052014861388968292e+01,3.306677711087675675e+01
1.054015432980851585e+01,2.732842847966011135e+01
1.056016004572735056e+01,2.382595498248545951e+01
1.058016576164618527e+01,1.960605015506805415e+01
1.060017147756501821e+01,1.655220519330750406e+01
1.062017719348385292e+01,1.410604536945758092e+01
1.064018290940268585e+01,1.141060550133380858e+01
1.066018862532152056e+01,1.016885865234405273e+01
1.068019434124035527e+01,8.696444617815933142e+00
1.070020005715918820e+01,7.952370824749973366e+00
1.072020577307802292e+01,6.385063360637994734e+00
1.074021148899685585e+01,6.196484017923094001e+00
1.076021720491569056e+01,5.921112260181986997e+00
1.078022292083452349e+01,4.183339035164920006e+00
1.080022863675335820e+01,3.830807385758486561e+00
1.082023435267219291e+01,4.101316018665278840e+00
1.084024006859102585e+01,4.448485664000118689e+00
1.086024578450986056e+01,4.255378234204206578e+00
1.088025150042869349e+01,3.633581088742698029e+00
1.090025721634752820e+01,3.211192154410654531e+00
1.092026293226636113e+01,3.046538449728835918e+00
1.094026864818519584e+01,3.401304268116378537e+00
1.096027436410403055e+01,2.369145947772913985e+00
1.098028008002286349e+01,3.292510404541095781e+00
1.100028579594169820e+01,3.351868589015763789e+00
1.102029151186053113e+01,2.334521826487361729e+00
1.104029722777936584e+01,2.698947017892821876e+00
1.106030294369819877e+01,3.478140772563889094e+00
1.108030865961703348e+01,3.307201823176138866e+00
1.110031437553586819e+01,2.518455059347457503e+00
1.112032009145470113e+01,2.867363565229120503e+00
1.114032580737353584e+01,2.062324523035268253e+00
1.116033152329236877e+01,2.475224565348113970e+00
1.118033723921120348e+01,2.566278254078313559e+00
1.120034295513003642e+01,2.383829118171476580e+00
1.122034867104887113e+01,2.982143581501242480e+00
1.124035438696770584e+01,2.613655956711675721e+00
1.126036010288653877e+01,2.326197461054015037e+00
1.128036581880537348e+01,1.570974691220355712e+00
1.130037153472420641e+01,2.092479746745844249e+00
1.132037725064304112e+01,2.457272119637401442e+00
1.134038296656187583e+01,2.755390223102016201e+00
1.136038868248070877e+01,2.354311607687392893e+00
1.138039439839954348e+01,1.976078019476397607e+00
1.140040011431837641e+01,2.556915283094056690e+00
1.142040583023721112e+01,2.302392525792085642e+00
1.144041154615604405e+01,2.803628983240303629e+00
1.146041726207487876e+01,2.441926164763397189e+00
1.148042297799371170e+01,2.631671563661440061e+00
1.150042869391254641e+01,2.016156915561607033e+00
1.152043440983138112e+01,2.532440600740586856e+00
1.154044012575021405e+01,2.196012732237335285e+00
1.156044584166904876e+01,1.412173170866648064e+00
1.158045155758788169e+01,1.951768856333232716e+00
1.160045727350671640e+01,2.155266673513360320e+00
1.162046298942555111e+01,2.045108728000535336e+00
1.164046870534438405e+01,2.020037091129082363e+00
1.166047442126321876e+01,2.453793587635103357e+00
1.168048013718205169e+01,2.947004729876181450e+00
1.170048585310088640e+01,1.753754113426048145e+00
1.172049156901971934e+01,2.370657138077817194e+00
1.174049728493855405e+01,2.303604709409503126e+00
1.176050300085738698e+01,2.324522121586753087e+00
1.178050871677622169e+01,1.644945561540795298e+00
1.180051443269505640e+01,2.444186069390989147e+00
1.182052014861388933e+01,2.821240477050084294e+00
1.184052586453272404e+01,2.130595904147017272e+00
1.186053158045155698e+01,2.524411945034983340e+00
1.188053729637039169e+01,2.452507694919242809e+00
1.190054301228922640e+01,1.952706601749641280e+00
1.192054872820805933e+01,2.026626785524341834e+00
1.194055444412689404e+01,2.464313150480561099e+00
1.196056016004572697e+01,2.694597489179027860e+00
1.198056587596456168e+01,2.518167092938105256e+00
1.200057159188339639e+01,1.728418830597783673e+00
1.202057730780222933e+01,2.623294055891100207e+00
1.204058302372106226e+01,2.637390565753320537e+00
1.206058873963989697e+01,2.887524535122191871e+00
1.208059445555873168e+01,1.417422177812765582e+00
1.210060017147756461e+01,2.607330567551862543e+00
1.212060588739639932e+01,2.791461036413823926e+00
1.214061160331523226e+01,2.399479067980946567e+00
1.216061731923406697e+01,2.475250436366589035e+00
1.218062303515290168e+01,2.529661307671609016e+00
1.220062875107173461e+01,2.918005980256664689e+00
1.222063446699056932e+01,3.091086376782147482e+00
1.224064018290940226e+01,3.204428737423308249e+00
1.226064589882823697e+01,2.417355003268219171e+00
1.228065161474707168e+01,2.800691040156117584e+00
1.230065733066590461e+01,2.243204243132648656e+00
1.232066304658473754e+01,2.773776188572075085e+00
1.234066876250357225e+01,2.104044127543794662e+00
1.236067447842240696e+01,2.251832119797819942e+00
1.238068019434123990e+01,2.699133701725658696e+00
1.240068591026007461e+01,2.277138082447841771e+00
1.242069162617890754e+01,2.784230175036774391e+00
1.244069734209774225e+01,2.300795987992843017e+00
1.246070305801657696e+01,1.962995365785302315e+00
1.248070877393540989e+01,3.085807821808807638e+00
1.250071448985424460e+01,2.637038929437328871e+00
1.252072020577307754e+01,2.470818785331086342e+00
1.254072592169191225e+01,2.332667686772759819e+00
1.256073163761074696e+01,2.666569252371097321e+00
1.258073735352957989e+01,2.393908843978771905e+00
1.260074306944841460e+01,2.854628370921667546e+00
1.262074878536724754e+01,2.896727049128758225e+00
1.264075450128608225e+01,3.773960911440657817e+00
1.266076021720491518e+01,3.010318220428459757e+00
1.268076593312374989e+01,3.676110481225961291e+00
1.270077164904258282e+01,2.579090172620475574e+00
1.272077736496141753e+01,2.836669559147240172e+00
1.274078308088025224e+01,3.510141794180048791e+00
1.276078879679908518e+01,2.887633428527271562e+00
1.278079451271791989e+01,3.446817344695921825e+00
1.280080022863675282e+01,3.706903914067419148e+00
1.282080594455558753e+01,2.905027039732904548e+00
1.284081166047442224e+01,2.740685242470726202e+00
1.286081737639325517e+01,2.873115006272183081e+00
1.288082309231208988e+01,3.855024631324831752e+00
1.290082880823092282e+01,3.718616586913127353e+00
1.292083452414975753e+01,3.582604623466854932e+00
1.294084024006859224e+01,3.610592630390276447e+00
1.296084595598742517e+01,4.292473448952909720e+00
1.298085167190625810e+01,3.813414636700368732e+00
1.300085738782509281e+01,3.652528016042015935e+00
1.302086310374392752e+01,4.266984203985685120e+00
1.304086881966276046e+01,3.878383089963276298e+00
1.306087453558159517e+01,3.453467960293843397e+00
1.308088025150042810e+01,3.758461366528198955e+00
1.310088596741926281e+01,3.788712806686026724e+00
1.312089168333809752e+01,3.670066391186317389e+00
1.314089739925693046e+01,4.091701250471516005e+00
1.316090311517576517e+01,3.725099811747536016e+00
1.318090883109459810e+01,4.378838083945650439e+00
1.320091454701343281e+01,4.103169696145404721e+00
1.322092026293226752e+01,4.527951367902478985e+00
1.324092597885110045e+01,4.843595108984762199e+00
1.326093169476993339e+01,5.022791416437295098e+00
1.328093741068876810e+01,5.288023456780155840e+00
1.330094312660760281e+01,4.312257624322266558e+00
1.332094884252643574e+01,4.094307948198506075e+00
1.334095455844527045e+01,4.368871518161819623e+00
1.336096027436410338e+01,4.854839595157157461e+00
1.338096599028293809e+01,5.261970943553608393e+00
1.340097170620177280e+01,4.143844345706859222e+00
1.342097742212060574e+01,5.260132535412010313e+00
1.344098313803944045e+01,4.652827434555980801e+00
1.346098885395827338e+01,5.196077186166422557e+00
1.348099456987710809e+01,5.717498106213362519e+00
1.350100028579594280e+01,5.054377686781496237e+00
1.352100600171477573e+01,5.664595812863812085e+00
1.354101171763361044e+01,5.486514759353518400e+00
1.356101743355244338e+01,6.036937067690987924e+00
1.358102314947127809e+01,5.880873556575959782e+00
1.360102886539011102e+01,5.306085974069032929e+00
1.362103458130894573e+01,5.759330444166957719e+00
1.364104029722777867e+01,5.479372463686223327e+00
1.366104601314661338e+01,5.808993818702658629e+00
1.368105172906544809e+01,6.059781822484337610e+00
1.370105744498428102e+01,5.884812939292336509e+00
1.372106316090311573e+01,5.424062758021054087e+00
1.374106887682194866e+01,5.638527479602753800e+00
1.376107459274078337e+01,5.797321739642651295e+00
1.378108030865961808e+01,5.966549696335152753e+00
1.380108602457845102e+01,6.620122206687417687e+00
1.382109174049728573e+01,5.747371561743891633e+00
1.384109745641611866e+01,5.751952925511561787e+00
1.386110317233495337e+01,5.547314535348947473e+00
1.388110888825378808e+01,6.449544521322776447e+00
1.390111460417262101e+01,5.427022801830014842e+00
1.392112032009145395e+01,5.257192493053453930e+00
1.394112603601028866e+01,5.400933756254861606e+00
1.396113175192912337e+01,4.724225124595677450e+00
1.398113746784795630e+01,5.738167046159054152e+00
1.400114318376679101e+01,4.907909025475981402e+00
1.402114889968562395e+01,4.611227903051209331e+00
1.404115461560445866e+01,4.205274912647295693e+00
1.406116033152329337e+01,4.144297102571594671e+00
1.408116604744212630e+01,4.051083846750717754e+00
1.410117176336095923e+01,3.793323332726930897e+00
1.412117747927979394e+01,4.030570183836045040e+00
1.414118319519862865e+01,3.622707893288718672e+00
1.416118891111746336e+01,4.063012381121662742e+00
1.418119462703629630e+01,3.103346010077253858e+00
1.420120034295512923e+01,2.975615168115830933e+00
1.422120605887396394e+01,3.359794644880393477e+00
1.424121177479279865e+01,2.367993705214709532e+00
1.426121749071163336e+01,3.120338665389859489e+00
1.428122320663046629e+01,2.591842427383286296e+00
1.430122892254929923e+01,3.147970740671063972e+00
1.432123463846813394e+01,2.618136665039385580e+00
1.434124035438696865e+01,2.862945737919972089e+00
1.436124607030580158e+01,2.895735132560156355e+00
1.438125178622463629e+01,2.994998007955311348e+00
1.440125750214346922e+01,3.401954856496196555e+00
1.442126321806230393e+01,2.473976597811491374e+00
1.444126893398113864e+01,2.880310672070803157e+00
1.446127464989997158e+01,2.991413377350177871e+00
1.448128036581880451e+01,3.750275897657317170e+00
1.450128608173763922e+01,2.422463145337105495e+00
1.452129179765647393e+01,2.772111826078025310e+00
1.454129751357530864e+01,3.219017240293235993e+00
1.456130322949414158e+01,3.068223064724204363e+00
1.458130894541297451e+01,3.046189875957617588e+00
1.460131466133180922e+01,2.722754067151850421e+00
1.462132037725064393e+01,3.057262333606352467e+00
1.464132609316947686e+01,3.296085173949937719e+00
1.466133180908831157e+01,3.086584329731278942e+00
1.468133752500714451e+01,2.585110495929362262e+00
1.470134324092597922e+01,2.532888362359225543e+00
1.472134895684481393e+01,3.333879547776606778e+00
1.474135467276364686e+01,3.407858212893979832e+00
1.476136038868247979e+01,3.482739078398684462e+00
1.478136610460131450e+01,3.044023012607910417e+00
1.480137182052014921e+01,3.293162925435932920e+00
1.482137753643898392e+01,2.929475705757401016e+00
1.484138325235781686e+01,2.836386943293901730e+00
1.486138896827664979e+01,2.947966803327569885e+00
1.488139468419548450e+01,3.607230349868090435e+00
1.490140040011431921e+01,3.116388938914076423e+00
1.492140611603315392e+01,2.896739046171655119e+00
1.494141183195198685e+01,2.684254757428471194e+00
1.496141754787081979e+01,3.834107398885224782e+00
1.498142326378965450e+01,3.180607989754093090e+00
1.500142897970848921e+01,3.617733053371295249e+00
1.502143469562732214e+01,3.556411904229527021e+00
1.504144041154615508e+01,3.392393081120942178e+00
1.506144612746498979e+01,3.660047686292644542e+00
1.508145184338382450e+01,3.365956973162152366e+00
1.510145755930265921e+01,3.504851852012778934e+00
1.512146327522149214e+01,4.128603794263021598e+00
1.514146899114032507e+01,4.744978179123681805e+00
1.516147470705915978e+01,4.556431564109111321e+00
1.518148042297799449e+01,4.238657627490297841e+00
1.520148613889682920e+01,4.257727388409967340e+00
1.522149185481566214e+01,4.621361734631229012e+00
1.524149757073449507e+01,4.980201861592428614e+00
1.526150328665332978e+01,3.610842692170424861e+00
1.528150900257216449e+01,4.015191128686117494e+00
1.530151471849099742e+01,4.624222760292036050e+00
1.532152043440983036e+01,4.823862916183909277e+00
1.534152615032866507e+01,5.091839926793631399e+00
1.536153186624749978e+01,5.590519038341133395e+00
1.538153758216633449e+01,5.249742147597387998e+00
1.540154329808516742e+01,4.896658147721346666e+00
1.542154901400400036e+01,5.288441678103181331e+00
1.544155472992283507e+01,6.573780436214866185e+00
1.546156044584166978e+01,5.940992495961187281e+00
1.548156616176050449e+01,5.773159326209793107e+00
1.550157187767933742e+01,6.443732073875773736e+00
1.552157759359817035e+01,6.813366423487109635e+00
1.554158330951700506e+01,6.879572938245662073e+00
1.556158902543583977e+01,7.596622998424003015e+00
1.558159474135467271e+01,7.347116745840767571e+00
1.560160045727350742e+01,7.163333982802298827e+00
1.562160617319234035e+01,7.764576905658712391e+00
1.564161188911117506e+01,7.316488488706483828e+00
1.566161760503000977e+01,8.446885777718762256e+00
1.568162332094884270e+01,8.279096521908389406e+00
1.570162903686767564e+01,8.592676576290465107e+00
1.572163475278651035e+01,8.485046735363308557e+00
1.574164046870534506e+01,8.643508420126027048e+00
1.576164618462417977e+01,9.480581504208871024e+00
1.578165190054301270e+01,9.755180935381130070e+00
1.580165761646184563e+01,9.239265600536377576e+00
1.582166333238068034e+01,1.015683321423781038e+01
1.584166904829951505e+01,1.078831129793569055e+01
1.586167476421834799e+01,1.102120303030314474e+01
1.588168048013718270e+01,1.045457872559482126e+01
1.590168619605601563e+01,1.111332890376896998e+01
1.592169191197485034e+01,1.202163175823720920e+01
1.594169762789368505e+01,1.259178466922456963e+01
1.596170334381251799e+01,1.292024544786774953e+01
1.598170905973135092e+01,1.234403898091964891e+01
1.600171477565018563e+01,1.350870472737256378e+01
1.602172049156902034e+01,1.344777022836300162e+01
1.604172620748785505e+01,1.358827784969633790e+01
1.606173192340668976e+01,1.456828310114534375e+01
1.608173763932552092e+01,1.428645349321455704e+01
1.610174335524435563e+01,1.521426524682335391e+01
1.612174907116319034e+01,1.602684694621567374e+01
1.614175478708202505e+01,1.626290392924649808e+01
1.616176050300085620e+01,1.636862391916153214e+01
1.618176621891969091e+01,1.770618732995546907e+01
1.620177193483852562e+01,1.804711704004199646e+01
1.622177765075736033e+01,1.837224775164443713e+01
1.624178336667619504e+01,1.872745687232720613e+01
1.626178908259502620e+01,1.875408932601820666e+01
1.628179479851386091e+01,2.082169238695562541e+01
1.630180051443269562e+01,2.122775747438056726e+01
1.632180623035153033e+01,2.125391718494497084e+01
1.634181194627036149e+01,2.161740385302292111e+01
1.636181766218919620e+01,2.298209205430877944e+01
1.638182337810803091e+01,2.295670993007052374e+01
1.640182909402686562e+01,2.343174314774137912e+01
1.642183480994570033e+01,2.460648430658078922e+01
1.644184052586453504e+01,2.524773523846906542e+01
1.646184624178336620e+01,2.566729192326231157e+01
1.648185195770220091e+01,2.760710678772408144e+01
1.650185767362103562e+01,2.678002065504144724e+01
1.652186338953986677e+01,2.825924304145186028e+01
1.654186910545870148e+01,2.893962190594643502e+01
1.656187482137753619e+01,3.037686225589906996e+01
1.658188053729637090e+01,3.026599507807681988e+01
1.660188625321520561e+01,3.096711378899615852e+01
1.662189196913404032e+01,3.230202700762283996e+01
1.664189768505287148e+01,3.279253349535154882e+01
1.666190340097170619e+01,3.286146300351852290e+01
1.668190911689054090e+01,3.393644766335969365e+01
1.670191483280937561e+01,3.434142576910348055e+01
1.672192054872820677e+01,3.489236336076800882e+01
1.674192626464704148e+01,3.458599124226653032e+01
1.676193198056587619e+01,3.542893191303819833e+01
1.678193769648471090e+01,3.458189543473037730e+01
1.680194341240354561e+01,3.422695238805625451e+01
1.682194912832238032e+01,3.323855351991794294e+01
1.684195484424121148e+01,3.238989262516063405e+01
1.686196056016004619e+01,3.208333852312289736e+01
1.688196627607888090e+01,3.024656357339961232e+01
1.690197199199771205e+01,2.904906138639521629e+01
1.692197770791654676e+01,2.627954935259853642e+01
1.694198342383538147e+01,2.496518627148088498e+01
1.696198913975421618e+01,2.228000072793455288e+01
1.698199485567305089e+01,2.011780124897433453e+01
1.700200057159188560e+01,1.878068909425308775e+01
1.702200628751071676e+01,1.661667276024201456e+01
1.704201200342955147e+01,1.507395087725206118e+01
1.706201771934838618e+01,1.384422663181637958e+01
1.708202343526722089e+01,1.154758960551415647e+01
1.710202915118605205e+01,1.023070089079112321e+01
1.712203486710488676e+01,9.054932494719842850e+00
1.714204058302372147e+01,7.373334691841821886e+00
1.716204629894255618e+01,7.661049050864113141e+00
1.718205201486139089e+01,6.607191518612134828e+00
1.720205773078022204e+01,5.691026708991264726e+00
1.722206344669905675e+01,5.975225381747238274e+00
1.724206916261789146e+01,5.565582987144510163e+00
1.726207487853672617e+01,5.811514254528565182e+00
1.728208059445555733e+01,5.165107367563578578e+00
1.730208631037439204e+01,4.040830758359708952e+00
1.732209202629322675e+01,5.072869184761703565e+00
1.734209774221206146e+01,4.580221249697646435e+00
1.736210345813089617e+01,4.864258796023870346e+00
1.738210917404973088e+01,4.388018055907179971e+00
1.740211488996856204e+01,3.721720300882022769e+00
1.742212060588739675e+01,3.680274598281391807e+00
1.744212632180623146e+01,4.710210522892186447e+00
1.746213203772506262e+01,4.520319588872142802e+00
1.748213775364389733e+01,5.172860774083581248e+00
1.750214346956273204e+01,4.662269082514127305e+00
1.752214918548156675e+01,4.736355661242958703e+00
1.754215490140040146e+01,4.394052978115935204e+00
1.756216061731923617e+01,4.804799907056554353e+00
1.758216633323806732e+01,4.077621433781463800e+00
1.760217204915690203e+01,4.030006911344181653e+00
1.762217776507573674e+01,5.310572341921128370e+00
1.764218348099457145e+01,5.452013270920913257e+00
1.766218919691340261e+01,5.731624674993122781e+00
1.768219491283223732e+01,5.761098379722072949e+00
1.770220062875107203e+01,6.019843800108938936e+00
1.772220634466990674e+01,5.720925374636013139e+00
1.774221206058874145e+01,5.877511791092508986e+00
1.776221777650757616e+01,6.180378913876605651e+00
1.778222349242640732e+01,6.054032858229366099e+00
1.780222920834524203e+01,6.376448237224223270e+00
1.782223492426407674e+01,6.310933685780666380e+00
1.784224064018290790e+01,7.078891836103768043e+00
1.786224635610174261e+01,7.836416449956898234e+00
1.788225207202057732e+01,7.499312180397742722e+00
1.790225778793941203e+01,7.253803089349710298e+00
1.792226350385824674e+01,7.875421824828327644e+00
1.794226921977708145e+01,8.704788688512943295e+00
1.796227493569591260e+01,8.931221820017228197e+00
