angle,intensity
1.000000000000000000e+01,5.941698276945604107e+01
1.002000571591883471e+01,5.741376878786672933e+01
1.004001143183766764e+01,5.444863602404046077e+01
1.006001714775650235e+01,5.180324522329256354e+01
1.008002286367533529e+01,4.801095021235331473e+01
1.010002857959417000e+01,4.555712684827757641e+01
1.012003429551300293e+01,4.213573591301938137e+01
1.014004001143183764e+01,3.808228619361052836e+01
1.016004572735067235e+01,3.537577961038249441e+01
1.018005144326950528e+01,3.203136545016193537e+01
1.020005715918833999e+01,2.784128020783426294e+01
1.022006287510717293e+01,2.509611305538827608e+01
1.024006859102600764e+01,2.239728761582579963e+01
1.026007430694484057e+01,2.107418867663821160e+01
1.028008002286367528e+01,1.838312053770992804e+01
1.030008573878250999e+01,1.648029635507224455e+01
1.032009145470134293e+01,1.434456938496856360e+01
1.034009717062017764e+01,1.174072706833077362e+01
1.036010288653901057e+01,1.147062332344785673e+01
1.038010860245784528e+01,1.049974362124205030e+01
1.040011431837667999e+01,9.949959744300752362e+00
1.042012003429551292e+01,8.850741595054852695e+00
1.044012575021434763e+01,7.055812682734197594e+00
1.046013146613318057e+01,6.888663611575086776e+00
1.048013718205201528e+01,6.530333159522007769e+00
1.050014289797084821e+01,5.244460876770425273e+00
1.052014861388968292e+01,5.635135225511361590e+00
1.054015432980851585e+01,6.098169274251231897e+00
1.056016004572735056e+01,4.643369913407108029e+00
1.058016576164618527e+01,5.479176730552289598e+00
1.060017147756501821e+01,5.009655351823840697e+00
1.062017719348385292e+01,4.050772195432574385e+00
1.064018290940268585e+01,4.693808763845854770e+00
1.066018862532152056e+01,4.368895579569839427e+00
1.068019434124035527e+01,4.553775090880879617e+00
1.070020005715918820e+01,2.920906505421227095e+00
1.072020577307802292e+01,4.035079834429786239e+00
1.074021148899685585e+01,3.787841266603431123e+00
1.076021720491569056e+01,3.056885584013146140e+00
1.078022292083452349e+01,4.015689063116584023e+00
1.080022863675335820e+01,3.242674619396396007e+00
1.082023435267219291e+01,3.164122581063403050e+00
1.084024006859102585e+01,3.711730115416708387e+00
1.086024578450986056e+01,2.498952089478762240e+00
1.088025150042869349e+01,3.274079240622472575e+00
1.090025721634752820e+01,3.709440351512537593e+00
1.092026293226636113e+01,3.795798746038195670e+00
1.094026864818519584e+01,2.909463865243810510e+00
1.096027436410403055e+01,3.068892259947564316e+00
1.098028008002286349e+01,2.724088251115548864e+00
1.100028579594169820e+01,2.535008608651554862e+00
1.102029151186053113e+01,2.545414605897956761e+00
1.104029722777936584e+01,2.994425030158147649e+00
1.106030294369819877e+01,1.719992078938624491e+00
1.108030865961703348e+01,1.858041317915144042e+00
1.110031437553586819e+01,3.094997141895666992e+00
1.112032009145470113e+01,3.074500482082844766e+00
1.114032580737353584e+01,1.944225723047815935e+00
1.116033152329236877e+01,2.583411363929913218e+00
1.118033723921120348e+01,2.145273320308019649e+00
1.120034295513003642e+01,2.328194281518772613e+00
1.122034867104887113e+01,3.278513501389380469e+00
1.124035438696770584e+01,3.329571086161645432e+00
1.126036010288653877e+01,1.899898746736689681e+00
1.128036581880537348e+01,2.050379739895396458e+00
1.130037153472420641e+01,2.378656349541965032e+00
1.132037725064304112e+01,1.587626810996688231e+00
1.134038296656187583e+01,2.343774967995133629e+00
1.136038868248070877e+01,3.085856642104538139e+00
1.138039439839954348e+01,3.263354155846189375e+00
1.140040011431837641e+01,2.705412749385892823e+00
1.142040583023721112e+01,1.996355654796705847e+00
1.144041154615604405e+01,1.606381524392636928e+00
1.146041726207487876e+01,2.723040964191565383e+00
1.148042297799371170e+01,1.757269590786751934e+00
1.150042869391254641e+01,3.029553788943248893e+00
1.152043440983138112e+01,2.494299494158975783e+00
1.154044012575021405e+01,2.127584617119135046e+00
1.156044584166904876e+01,2.643756551052474535e+00
1.158045155758788169e+01,2.791491805166177009e+00
1.160045727350671640e+01,1.292390438131172603e+00
1.162046298942555111e+01,1.786518631686504266e+00
1.164046870534438405e+01,2.592132401547811327e+00
1.166047442126321876e+01,2.949230439320063457e+00
1.168048013718205169e+01,2.882852431924746828e+00
1.170048585310088640e+01,2.922258698280707723e+00
1.172049156901971934e+01,2.443519046808736661e+00
1.174049728493855405e+01,2.814309128549739469e+00
1.176050300085738698e+01,1.365179076945260528e+00
1.178050871677622169e+01,2.628547528750082574e+00
1.180051443269505640e+01,2.678635133592437434e+00
1.182052014861388933e+01,2.869652509103544524e+00
1.184052586453272404e+01,1.761356833390052667e+00
1.186053158045155698e+01,1.744672989928256035e+00
1.188053729637039169e+01,3.018463886943533847e+00
1.190054301228922640e+01,2.735820151690790958e+00
1.192054872820805933e+01,1.433895766567619745e+00
1.194055444412689404e+01,1.524909712019252517e+00
1.196056016004572697e+01,2.628964969572629151e+00
1.198056587596456168e+01,2.379728871738513885e+00
1.200057159188339639e+01,2.725958404773167310e+00
1.202057730780222933e+01,2.841887786177856423e+00
1.204058302372106226e+01,1.234796073633557700e+00
1.206058873963989697e+01,2.378870281622661675e+00
1.208059445555873168e+01,2.037863662075268589e+00
1.210060017147756461e+01,2.260562667291146077e+00
1.212060588739639932e+01,1.673840229086899223e+00
1.214061160331523226e+01,1.290980765060703916e+00
1.216061731923406697e+01,3.017741488366312286e+00
1.218062303515290168e+01,2.468477589293401220e+00
1.220062875107173461e+01,2.127515630404540836e+00
1.222063446699056932e+01,1.780213406906303808e+00
1.224064018290940226e+01,1.687427388647350091e+00
1.226064589882823697e+01,2.697808045506495667e+00
1.228065161474707168e+01,2.289965562830818424e+00
1.230065733066590461e+01,1.411890625480430650e+00
1.232066304658473754e+01,1.625189884471963664e+00
1.234066876250357225e+01,2.919961245624547175e+00
1.236067447842240696e+01,2.619653715976206776e+00
1.238068019434123990e+01,1.839141810129702570e+00
1.240068591026007461e+01,1.668357748866897028e+00
1.242069162617890754e+01,1.256830306299213440e+00
1.244069734209774225e+01,2.287833147300669001e+00
1.246070305801657696e+01,1.508839199882930249e+00
1.248070877393540989e+01,2.137120848448954114e+00
1.250071448985424460e+01,1.837813663926447294e+00
1.252072020577307754e+01,2.502398479032615697e+00
1.254072592169191225e+01,1.742501086028489077e+00
1.256073163761074696e+01,1.645506634980817395e+00
1.258073735352957989e+01,1.677501879150815611e+00
1.260074306944841460e+01,2.670152978543828937e+00
1.262074878536724754e+01,1.736932466784175455e+00
1.264075450128608225e+01,1.621072157077656950e+00
1.266076021720491518e+01,3.023634718350644679e+00
1.268076593312374989e+01,1.637053270652746306e+00
1.270077164904258282e+01,3.070620021841624858e+00
1.272077736496141753e+01,2.126367748428948268e+00
1.274078308088025224e+01,2.073402488804882982e+00
1.276078879679908518e+01,2.082711309584095893e+00
1.278079451271791989e+01,2.080400634145581407e+00
1.280080022863675282e+01,1.563083793966983270e+00
1.282080594455558753e+01,1.670730474725900860e+00
1.284081166047442224e+01,1.769138166213164443e+00
1.286081737639325517e+01,1.791717676435408801e+00
1.288082309231208988e+01,2.801309159195951359e+00
1.290082880823092282e+01,2.378855723205428152e+00
1.292083452414975753e+01,1.432271830819249914e+00
1.294084024006859224e+01,1.708296793185078766e+00
1.296084595598742517e+01,1.714211494913849609e+00
1.298085167190625810e+01,2.596573468847805710e+00
1.300085738782509281e+01,2.353486309227758255e+00
1.302086310374392752e+01,2.993662739215811275e+00
1.304086881966276046e+01,2.562012771341285244e+00
1.306087453558159517e+01,2.256496152140814004e+00
1.308088025150042810e+01,2.706416177477286134e+00
1.310088596741926281e+01,2.286813871281724087e+00
1.312089168333809752e+01,2.471773046175339328e+00
1.314089739925693046e+01,2.807334445225689201e+00
1.316090311517576517e+01,1.767164419339714465e+00
1.318090883109459810e+01,1.985430728023588776e+00
1.320091454701343281e+01,2.715344890955437851e+00
1.322092026293226752e+01,3.159202894113345206e+00
1.324092597885110045e+01,2.871212295140962212e+00
1.326093169476993339e+01,3.422789175891420843e+00
1.328093741068876810e+01,2.350400651274266117e+00
1.330094312660760281e+01,1.965427355561047529e+00
1.332094884252643574e+01,3.036999187280463808e+00
1.334095455844527045e+01,2.570115529133498722e+00
1.336096027436410338e+01,3.352858400139707484e+00
1.338096599028293809e+01,3.130506109637931189e+00
1.340097170620177280e+01,2.080325897981243788e+00
1.342097742212060574e+01,3.114366034065684463e+00
1.344098313803944045e+01,3.512030063036887029e+00
1.346098885395827338e+01,2.775925407866575600e+00
1.348099456987710809e+01,2.980085924151581800e+00
1.350100028579594280e+01,3.004824223973995956e+00
1.352100600171477573e+01,2.520895782226896920e+00
1.354101171763361044e+01,2.210551253947210526e+00
1.356101743355244338e+01,4.078787907726205475e+00
1.358102314947127809e+01,3.781135454549636954e+00
1.360102886539011102e+01,3.705555532166221244e+00
1.362103458130894573e+01,3.907720584950412857e+00
1.364104029722777867e+01,3.280454831044441910e+00
1.366104601314661338e+01,4.050576887256008618e+00
1.368105172906544809e+01,3.495175599129642041e+00
1.370105744498428102e+01,3.121749617499107732e+00
1.372106316090311573e+01,2.775842098661906121e+00
1.374106887682194866e+01,4.190441483996903749e+00
1.376107459274078337e+01,2.848158432425007547e+00
1.378108030865961808e+01,3.661202797215276750e+00
1.380108602457845102e+01,4.196092302955850784e+00
1.382109174049728573e+01,3.890043956561692884e+00
1.384109745641611866e+01,4.271041335099567959e+00
1.386110317233495337e+01,3.085254263370782901e+00
1.388110888825378808e+01,3.010328168681765781e+00
1.390111460417262101e+01,3.522192222338663914e+00
1.392112032009145395e+01,4.864052098480249775e+00
1.394112603601028866e+01,4.976998485112060777e+00
1.396113175192912337e+01,4.890635948061384575e+00
1.398113746784795630e+01,4.912764218968230345e+00
1.400114318376679101e+01,4.552731378773505533e+00
1.402114889968562395e+01,4.139199218271337521e+00
1.404115461560445866e+01,4.016811165218459934e+00
1.406116033152329337e+01,3.850331180765700800e+00
1.408116604744212630e+01,4.451547440363877506e+00
1.410117176336095923e+01,5.128755709148033581e+00
1.412117747927979394e+01,5.318699676589224268e+00
1.414118319519862865e+01,4.923906580220540619e+00
1.416118891111746336e+01,5.120742721472518078e+00
1.418119462703629630e+01,5.147033122616172740e+00
1.420120034295512923e+01,5.815710673957116050e+00
1.422120605887396394e+01,5.253008262144747142e+00
1.424121177479279865e+01,5.675785567735593062e+00
1.426121749071163336e+01,6.120706667897223063e+00
1.428122320663046629e+01,5.939209285344500877e+00
1.430122892254929923e+01,4.610117752364319088e+00
1.432123463846813394e+01,5.110792971494563908e+00
1.434124035438696865e+01,5.569693229932217271e+00
1.436124607030580158e+01,6.002927068169245040e+00
1.438125178622463629e+01,4.905920423006246089e+00
1.440125750214346922e+01,6.270583886403843898e+00
1.442126321806230393e+01,5.574400542621688714e+00
1.444126893398113864e+01,5.198280375040698509e+00
1.446127464989997158e+01,5.393770430292852858e+00
1.448128036581880451e+01,7.224046169944720042e+00
1.450128608173763922e+01,7.328846552336264253e+00
1.452129179765647393e+01,5.968911727519329524e+00
1.454129751357530864e+01,6.524446286217081337e+00
1.456130322949414158e+01,6.296686480977774281e+00
1.458130894541297451e+01,6.419691688213845282e+00
1.460131466133180922e+01,7.094321074443426411e+00
1.462132037725064393e+01,7.931047644539288122e+00
1.464132609316947686e+01,8.024921579845690545e+00
1.466133180908831157e+01,7.000325153826330471e+00
1.468133752500714451e+01,7.745158738746504845e+00
1.470134324092597922e+01,8.026117070232006157e+00
1.472134895684481393e+01,8.204842445670164963e+00
1.474135467276364686e+01,7.284968805820524196e+00
1.476136038868247979e+01,8.590783127719971546e+00
1.478136610460131450e+01,8.743738137749565098e+00
1.480137182052014921e+01,7.801022019091262472e+00
1.482137753643898392e+01,8.724715428628941893e+00
1.484138325235781686e+01,9.003972296274177722e+00
1.486138896827664979e+01,8.951547060178516091e+00
1.488139468419548450e+01,9.126259502570029269e+00
1.490140040011431921e+01,7.991196378695923030e+00
1.492140611603315392e+01,9.058278868872685408e+00
1.494141183195198685e+01,8.423407625440153979e+00
1.496141754787081979e+01,8.833663943849513700e+00
1.498142326378965450e+01,8.867691581952609425e+00
1.500142897970848921e+01,7.764905775709584290e+00
1.502143469562732214e+01,7.900932701220483523e+00
1.504144041154615508e+01,7.500497893319676201e+00
1.506144612746498979e+01,6.988938556060195317e+00
1.508145184338382450e+01,7.942945015629511829e+00
1.510145755930265921e+01,7.393883504101821380e+00
1.512146327522149214e+01,6.183102756913101850e+00
1.514146899114032507e+01,7.479416173117548361e+00
1.516147470705915978e+01,6.981195763807119370e+00
1.518148042297799449e+01,6.925748864765068902e+00
1.520148613889682920e+01,5.570457714455716136e+00
1.522149185481566214e+01,4.978471136850064482e+00
1.524149757073449507e+01,5.676951835717930273e+00
1.526150328665332978e+01,6.050762490764198809e+00
1.528150900257216449e+01,4.766645971978554996e+00
1.530151471849099742e+01,4.505727202109714113e+00
1.532152043440983036e+01,3.832718864777826084e+00
1.534152615032866507e+01,4.318509160096136057e+00
1.536153186624749978e+01,4.294245370287371522e+00
1.538153758216633449e+01,4.535653784436632918e+00
1.540154329808516742e+01,3.908144630876596803e+00
1.542154901400400036e+01,3.147167009730663434e+00
1.544155472992283507e+01,4.758476179206687640e+00
1.546156044584166978e+01,3.955429745360278915e+00
1.548156616176050449e+01,3.259720292491449012e+00
1.550157187767933742e+01,3.109761721034820958e+00
1.552157759359817035e+01,4.397977261264903071e+00
1.554158330951700506e+01,4.209069463572872927e+00
1.556158902543583977e+01,4.430479198599726942e+00
1.558159474135467271e+01,4.763261449920659807e+00
1.560160045727350742e+01,3.593875613844240480e+00
1.562160617319234035e+01,3.795554168486642954e+00
1.564161188911117506e+01,4.013030080557270729e+00
1.566161760503000977e+01,4.439043236377975710e+00
1.568162332094884270e+01,3.659723044606354669e+00
1.570162903686767564e+01,4.110429204011661675e+00
1.572163475278651035e+01,5.021275497682784028e+00
1.574164046870534506e+01,4.616180142823031574e+00
1.576164618462417977e+01,4.913496979828778422e+00
1.578165190054301270e+01,4.314664378765876940e+00
1.580165761646184563e+01,3.822048575176532292e+00
1.582166333238068034e+01,4.206410656477449272e+00
1.584166904829951505e+01,5.271384455807772262e+00
1.586167476421834799e+01,5.384957195685235121e+00
1.588168048013718270e+01,5.380885280428623574e+00
1.590168619605601563e+01,4.314689275198914764e+00
1.592169191197485034e+01,4.489203191186836861e+00
1.594169762789368505e+01,4.933665001552490104e+00
1.596170334381251799e+01,5.547237821293656168e+00
1.598170905973135092e+01,4.830736400916112672e+00
1.600171477565018563e+01,5.272345138068261328e+00
1.602172049156902034e+01,6.079624866792035398e+00
1.604172620748785505e+01,6.088593083859471733e+00
1.606173192340668976e+01,5.694823870788657594e+00
1.608173763932552092e+01,5.697963596454165724e+00
1.610174335524435563e+01,7.506858926439317514e+00
1.612174907116319034e+01,7.212244849172942729e+00
1.614175478708202505e+01,6.569926123126976769e+00
1.616176050300085620e+01,7.863602166423780737e+00
1.618176621891969091e+01,6.499342831875143389e+00
1.620177193483852562e+01,6.656070184823140501e+00
1.622177765075736033e+01,7.815964282124697071e+00
1.624178336667619504e+01,7.566512358123969939e+00
1.626178908259502620e+01,7.248431802292234494e+00
1.628179479851386091e+01,7.832017139971497954e+00
1.630180051443269562e+01,8.532230292029920449e+00
1.632180623035153033e+01,7.751329547951089971e+00
1.634181194627036149e+01,7.913204709066686604e+00
1.636181766218919620e+01,8.738961350261376992e+00
1.638182337810803091e+01,1.024024813144612089e+01
1.640182909402686562e+01,9.366034607779237575e+00
1.642183480994570033e+01,1.024107159834444580e+01
1.644184052586453504e+01,1.057174487275471009e+01
1.646184624178336620e+01,1.042110036961058128e+01
1.648185195770220091e+01,9.975680259454749788e+00
1.650185767362103562e+01,1.149856218297702881e+01
1.652186338953986677e+01,1.135879531835930401e+01
1.654186910545870148e+01,1.150124527210385139e+01
1.656187482137753619e+01,1.251148861277859758e+01
1.658188053729637090e+01,1.123470248443978470e+01
1.660188625321520561e+01,1.293416282956971486e+01
1.662189196913404032e+01,1.294368066623954938e+01
1.664189768505287148e+01,1.280630304298858846e+01
1.666190340097170619e+01,1.403520820432767024e+01
1.668190911689054090e+01,1.423264345697501376e+01
1.670191483280937561e+01,1.456855870285280652e+01
1.672192054872820677e+01,1.469468794945593260e+01
1.674192626464704148e+01,1.457876570726647181e+01
1.676193198056587619e+01,1.555400600334884054e+01
1.678193769648471090e+01,1.550908065049370599e+01
1.680194341240354561e+01,1.637292312310244569e+01
1.682194912832238032e+01,1.705806599523120681e+01
1.684195484424121148e+01,1.616128274980623658e+01
1.686196056016004619e+01,1.751368574662103228e+01
1.688196627607888090e+01,1.780103828863989435e+01
1.690197199199771205e+01,1.854843941160506660e+01
1.692197770791654676e+01,1.862498012520650548e+01
1.694198342383538147e+01,1.855156030853677862e+01
1.696198913975421618e+01,1.996734594999738732e+01
1.698199485567305089e+01,2.032552800165960250e+01
1.700200057159188560e+01,2.143279145488018145e+01
1.702200628751071676e+01,2.111902250090715683e+01
1.704201200342955147e+01,2.111294256358837984e+01
1.706201771934838618e+01,2.207645077961225510e+01
1.708202343526722089e+01,2.209763756856686712e+01
1.710202915118605205e+01,2.250082271874537554e+01
1.712203486710488676e+01,2.333072654586714378e+01
1.714204058302372147e+01,2.318240706649952187e+01
1.716204629894255618e+01,2.374353016672326078e+01
1.718205201486139089e+01,2.390295540884300607e+01
1.720205773078022204e+01,2.287685601039475003e+01
1.722206344669905675e+01,2.376653797599407270e+01
1.724206916261789146e+01,2.202983443907695360e+01
1.726207487853672617e+01,2.194172270505790934e+01
1.728208059445555733e+01,2.276009311767701959e+01
1.730208631037439204e+01,2.087734204681014916e+01
1.732209202629322675e+01,2.120583415606036937e+01
1.734209774221206146e+01,1.987925816884921559e+01
1.736210345813089617e+01,1.975950635357453677e+01
1.738210917404973088e+01,1.738894206044724200e+01
1.740211488996856204e+01,1.717042097957839886e+01
1.742212060588739675e+01,1.582725739534387088e+01
1.744212632180623146e+01,1.625342660774531112e+01
1.746213203772506262e+01,1.471105749758428161e+01
1.748213775364389733e+01,1.345366885490738262e+01
1.750214346956273204e+01,1.362139428390761431e+01
1.752214918548156675e+01,1.257092323467722927e+01
1.754215490140040146e+01,1.277384939375073181e+01
1.756216061731923617e+01,1.147532268525474741e+01
1.758216633323806732e+01,1.149681854347803167e+01
1.760217204915690203e+01,1.216958321138802468e+01
1.762217776507573674e+01,1.199916157889778212e+01
1.764218348099457145e+01,1.096720333431748529e+01
1.766218919691340261e+01,1.139560765342310944e+01
1.768219491283223732e+01,1.003049529481494950e+01
1.770220062875107203e+01,1.045526141011806764e+01
1.772220634466990674e+01,1.144242150428808635e+01
1.774221206058874145e+01,1.176826730436214596e+01
1.776221777650757616e+01,1.126483077411239897e+01
1.778222349242640732e+01,1.133826052993968680e+01
1.780222920834524203e+01,1.076581359217047407e+01
1.782223492426407674e+01,1.109314886733759487e+01
1.784224064018290790e+01,1.192815068834399739e+01
1.786224635610174261e+01,1.290589164943322409e+01
1.788225207202057732e+01,1.356091925629847239e+01
1.790225778793941203e+01,1.376860355273306524e+01
1.792226350385824674e+01,1.426516651959554771e+01
1.794226921977708145e+01,1.320360900303389151e+01
1.796227493569591260e+01,1.433250900614341461e+01
