angle,intensity
1.000000000000000000e+01,9.280981417289234514e+01
1.002000571591883471e+01,9.350699590932825345e+01
1.004001143183766764e+01,9.450656277412061002e+01
1.006001714775650235e+01,9.640520941044533743e+01
1.008002286367533529e+01,9.695877083615835090e+01
1.010002857959417000e+01,9.707670688114825452e+01
1.012003429551300293e+01,9.883629768788932779e+01
1.014004001143183764e+01,9.882181503932395117e+01
1.016004572735067235e+01,9.916392532527240178e+01
1.018005144326950528e+01,9.937884241452860579e+01
1.020005715918833999e+01,9.859989998990330662e+01
1.022006287510717293e+01,9.907230420111537228e+01
1.024006859102600764e+01,9.875526138024007139e+01
1.026007430694484057e+01,9.799899342076440689e+01
1.028008002286367528e+01,9.696935649084298348e+01
1.030008573878250999e+01,9.507666136756634501e+01
1.032009145470134293e+01,9.352155784496319768e+01
1.034009717062017764e+01,9.223474489675774635e+01
1.036010288653901057e+01,9.003760005714755721e+01
1.038010860245784528e+01,8.659318015717200012e+01
1.040011431837667999e+01,8.414233064020217512e+01
1.042012003429551292e+01,8.003321709077877699e+01
1.044012575021434763e+01,7.663663050761650197e+01
1.046013146613318057e+01,7.109287483223729964e+01
1.048013718205201528e+01,6.736294086322234875e+01
1.050014289797084821e+01,6.234469373235452849e+01
1.052014861388968292e+01,5.704871888523275913e+01
1.054015432980851585e+01,5.189505846605205619e+01
1.056016004572735056e+01,4.765366884119849544e+01
1.058016576164618527e+01,4.289191536271222560e+01
1.060017147756501821e+01,3.826910282279457931e+01
1.062017719348385292e+01,3.423644089946955660e+01
1.064018290940268585e+01,3.046770049699154725e+01
1.066018862532152056e+01,2.814657115894558714e+01
1.068019434124035527e+01,2.386124888912251407e+01
1.070020005715918820e+01,2.152302817990584316e+01
1.072020577307802292e+01,1.918566728632154650e+01
1.074021148899685585e+01,1.752799693376540091e+01
1.076021720491569056e+01,1.614252593998455154e+01
1.078022292083452349e+01,1.510326206786832870e+01
1.080022863675335820e+01,1.374780751671366374e+01
1.082023435267219291e+01,1.291614598951397141e+01
1.084024006859102585e+01,1.240608581398560517e+01
1.086024578450986056e+01,1.138374477546524943e+01
1.088025150042869349e+01,1.119367418826299421e+01
1.090025721634752820e+01,1.094643609035991716e+01
1.092026293226636113e+01,1.005350318231595708e+01
1.094026864818519584e+01,9.969955415211344985e+00
1.096027436410403055e+01,9.774581326223636069e+00
1.098028008002286349e+01,9.709433036759921976e+00
1.100028579594169820e+01,9.187775400302559348e+00
1.102029151186053113e+01,8.703428022960558508e+00
1.104029722777936584e+01,8.636108713641396761e+00
1.106030294369819877e+01,8.068734717417893165e+00
1.108030865961703348e+01,8.481585750472657281e+00
1.110031437553586819e+01,7.994635302482052452e+00
1.112032009145470113e+01,7.988335365389056086e+00
1.114032580737353584e+01,7.160073092637558645e+00
1.116033152329236877e+01,7.524947025331976569e+00
1.118033723921120348e+01,7.701176304348171797e+00
1.120034295513003642e+01,7.379243525056696562e+00
1.122034867104887113e+01,7.895257561568972626e+00
1.124035438696770584e+01,8.243863014950406409e+00
1.126036010288653877e+01,7.488190591347899883e+00
1.128036581880537348e+01,7.204117795005058333e+00
1.130037153472420641e+01,6.453950379029857132e+00
1.132037725064304112e+01,7.633891371265617565e+00
1.134038296656187583e+01,7.286390202164725771e+00
1.136038868248070877e+01,6.811216106528157788e+00
1.138039439839954348e+01,6.919483735474278419e+00
1.140040011431837641e+01,6.323393782398206042e+00
1.142040583023721112e+01,6.023673221266373723e+00
1.144041154615604405e+01,6.817672725751126706e+00
1.146041726207487876e+01,6.119679726377970752e+00
1.148042297799371170e+01,6.812011362074699150e+00
1.150042869391254641e+01,6.636957371460761479e+00
1.152043440983138112e+01,6.156423689303158753e+00
1.154044012575021405e+01,6.630756246469155180e+00
1.156044584166904876e+01,6.435722846495916194e+00
1.158045155758788169e+01,6.723257071161595100e+00
1.160045727350671640e+01,6.516852266287598283e+00
1.162046298942555111e+01,6.440338330833652591e+00
1.164046870534438405e+01,5.564849216974058876e+00
1.166047442126321876e+01,6.262050271396326195e+00
1.168048013718205169e+01,5.834115860035091750e+00
1.170048585310088640e+01,6.024229109839650320e+00
1.172049156901971934e+01,6.172361878231422239e+00
1.174049728493855405e+01,5.607563903128587768e+00
1.176050300085738698e+01,5.976014637473239688e+00
1.178050871677622169e+01,5.417571794966578480e+00
1.180051443269505640e+01,6.555716989307521558e+00
1.182052014861388933e+01,5.402358314870530087e+00
1.184052586453272404e+01,6.191413264798539373e+00
1.186053158045155698e+01,6.294865760033452773e+00
1.188053729637039169e+01,6.480586824977962124e+00
1.190054301228922640e+01,6.126103121262003626e+00
1.192054872820805933e+01,6.168812192326367239e+00
1.194055444412689404e+01,5.137952735023995743e+00
1.196056016004572697e+01,5.986643618412356815e+00
1.198056587596456168e+01,6.356487221368357865e+00
1.200057159188339639e+01,5.248913178286199965e+00
1.202057730780222933e+01,6.278605646282709785e+00
1.204058302372106226e+01,5.851301220659061997e+00
1.206058873963989697e+01,5.513491690808836054e+00
1.208059445555873168e+01,6.042683291520295263e+00
1.210060017147756461e+01,6.263473487291494557e+00
1.212060588739639932e+01,6.004744640711012771e+00
1.214061160331523226e+01,6.007951321039534776e+00
1.216061731923406697e+01,5.714966406682336242e+00
1.218062303515290168e+01,6.194612733243806346e+00
1.220062875107173461e+01,5.571800797631196289e+00
1.222063446699056932e+01,5.702547455727625447e+00
1.224064018290940226e+01,6.250511494070272178e+00
1.226064589882823697e+01,5.787449808933883943e+00
1.228065161474707168e+01,5.555952294750196252e+00
1.230065733066590461e+01,6.168272019528408201e+00
1.232066304658473754e+01,6.297171766089745049e+00
1.234066876250357225e+01,5.312794466399214599e+00
1.236067447842240696e+01,5.569496010478819592e+00
1.238068019434123990e+01,5.739257712536907974e+00
1.240068591026007461e+01,5.215108964256738311e+00
1.242069162617890754e+01,5.702300629839559321e+00
1.244069734209774225e+01,5.690115247633710460e+00
1.246070305801657696e+01,4.751419376954485685e+00
1.248070877393540989e+01,5.532273903385119596e+00
1.250071448985424460e+01,6.022116625989688110e+00
1.252072020577307754e+01,5.227507009883800571e+00
1.254072592169191225e+01,4.887253078040821208e+00
1.256073163761074696e+01,5.320009565138400731e+00
1.258073735352957989e+01,5.125108425128487966e+00
1.260074306944841460e+01,5.431764405586282152e+00
1.262074878536724754e+01,5.806760870901293003e+00
1.264075450128608225e+01,5.431502513311151858e+00
1.266076021720491518e+01,5.543582871566076875e+00
1.268076593312374989e+01,5.767464491090031231e+00
1.270077164904258282e+01,5.411130203831080898e+00
1.272077736496141753e+01,5.120110089902166095e+00
1.274078308088025224e+01,5.343563625373151993e+00
1.276078879679908518e+01,5.391593544350316236e+00
1.278079451271791989e+01,6.010664537049861700e+00
1.280080022863675282e+01,5.322283819233478930e+00
1.282080594455558753e+01,5.211663138347744528e+00
1.284081166047442224e+01,4.618996995924716131e+00
1.286081737639325517e+01,5.440870563382834035e+00
1.288082309231208988e+01,5.832031633199908249e+00
1.290082880823092282e+01,5.286549712392009326e+00
1.292083452414975753e+01,5.988287127373324026e+00
1.294084024006859224e+01,5.325096091894918615e+00
1.296084595598742517e+01,5.033957659167944243e+00
1.298085167190625810e+01,5.139810361864988408e+00
1.300085738782509281e+01,5.417235580713097853e+00
1.302086310374392752e+01,5.647127288679686608e+00
1.304086881966276046e+01,5.792451818731290558e+00
1.306087453558159517e+01,5.078234959113482105e+00
1.308088025150042810e+01,5.396910161302590936e+00
1.310088596741926281e+01,4.680936884339798709e+00
1.312089168333809752e+01,5.284539793891194215e+00
1.314089739925693046e+01,5.733144986336958127e+00
1.316090311517576517e+01,5.308503939059394661e+00
1.318090883109459810e+01,5.653543782940462670e+00
1.320091454701343281e+01,5.725066540942883364e+00
1.322092026293226752e+01,5.013914361732268787e+00
1.324092597885110045e+01,5.110253194473147076e+00
1.326093169476993339e+01,5.007499108877080829e+00
1.328093741068876810e+01,5.542655149068922427e+00
1.330094312660760281e+01,4.458649864615726877e+00
1.332094884252643574e+01,4.927616648427041390e+00
1.334095455844527045e+01,5.108243779572401166e+00
1.336096027436410338e+01,4.495961218245803970e+00
1.338096599028293809e+01,5.315367258937857997e+00
1.340097170620177280e+01,5.198776543263909033e+00
1.342097742212060574e+01,4.737668861996301217e+00
1.344098313803944045e+01,5.923057115553920227e+00
1.346098885395827338e+01,4.913742830977252396e+00
1.348099456987710809e+01,5.387200729216407247e+00
1.350100028579594280e+01,4.976015457453801361e+00
1.352100600171477573e+01,4.616900433437941764e+00
1.354101171763361044e+01,5.609469894897124220e+00
1.356101743355244338e+01,4.734525499522987957e+00
1.358102314947127809e+01,5.180201923856500912e+00
1.360102886539011102e+01,4.573500383891194510e+00
1.362103458130894573e+01,4.862661431020304903e+00
1.364104029722777867e+01,4.598319145502388849e+00
1.366104601314661338e+01,5.381324688813155177e+00
1.368105172906544809e+01,4.719293093323575938e+00
1.370105744498428102e+01,5.338124672347948518e+00
1.372106316090311573e+01,4.437536797927593923e+00
1.374106887682194866e+01,5.008542744173295702e+00
1.376107459274078337e+01,4.628034430995076498e+00
1.378108030865961808e+01,5.732602864540347731e+00
1.380108602457845102e+01,5.198528898214521021e+00
1.382109174049728573e+01,4.548482187446134084e+00
1.384109745641611866e+01,4.995680778453440496e+00
1.386110317233495337e+01,5.234487292765425792e+00
1.388110888825378808e+01,5.151248056099637651e+00
1.390111460417262101e+01,5.571428353268707667e+00
1.392112032009145395e+01,5.789883207455619463e+00
1.394112603601028866e+01,5.169571565932130852e+00
1.396113175192912337e+01,4.857227417086104282e+00
1.398113746784795630e+01,5.650976562032271389e+00
1.400114318376679101e+01,4.632010164176525890e+00
1.402114889968562395e+01,5.690311219077950788e+00
1.404115461560445866e+01,5.009987133139557791e+00
1.406116033152329337e+01,5.156098440860635179e+00
1.408116604744212630e+01,5.029911319550823379e+00
1.410117176336095923e+01,4.816217449920618066e+00
1.412117747927979394e+01,5.420141217022262481e+00
1.414118319519862865e+01,5.448734623298575386e+00
1.416118891111746336e+01,5.671900277917238498e+00
1.418119462703629630e+01,5.256300728394863064e+00
1.420120034295512923e+01,5.570194892943161946e+00
1.422120605887396394e+01,5.625044831594302686e+00
1.424121177479279865e+01,5.867779424761659257e+00
1.426121749071163336e+01,5.306012200964008940e+00
1.428122320663046629e+01,5.131461323180337430e+00
1.430122892254929923e+01,5.180385942964861101e+00
1.432123463846813394e+01,5.849736791192032825e+00
1.434124035438696865e+01,5.500241977073612176e+00
1.436124607030580158e+01,5.149027482739041872e+00
1.438125178622463629e+01,6.386143366113223863e+00
1.440125750214346922e+01,6.417972415512675610e+00
1.442126321806230393e+01,5.894439870543007665e+00
1.444126893398113864e+01,5.401033183358074474e+00
1.446127464989997158e+01,5.305821797898280678e+00
1.448128036581880451e+01,6.352473594698016868e+00
1.450128608173763922e+01,5.467252162481239353e+00
1.452129179765647393e+01,5.514327636403971944e+00
1.454129751357530864e+01,5.831329078715111081e+00
1.456130322949414158e+01,5.957591538975795409e+00
1.458130894541297451e+01,6.469471570621684542e+00
1.460131466133180922e+01,6.411963094387749251e+00
1.462132037725064393e+01,6.431067351409055277e+00
1.464132609316947686e+01,6.482615364943411507e+00
1.466133180908831157e+01,6.351010650570415805e+00
1.468133752500714451e+01,6.770267742585819093e+00
1.470134324092597922e+01,6.816064279126978320e+00
1.472134895684481393e+01,7.126472259405748133e+00
1.474135467276364686e+01,6.861553515285301330e+00
1.476136038868247979e+01,7.114900001744395297e+00
1.478136610460131450e+01,7.424955028305880944e+00
1.480137182052014921e+01,6.474975858722972433e+00
1.482137753643898392e+01,6.765106440298394475e+00
1.484138325235781686e+01,8.044575830166223795e+00
1.486138896827664979e+01,6.956568386936998749e+00
1.488139468419548450e+01,6.684583214548325714e+00
1.490140040011431921e+01,6.949153989011358945e+00
1.492140611603315392e+01,7.130972977584940864e+00
1.494141183195198685e+01,7.976187073929160931e+00
1.496141754787081979e+01,8.001066995067240839e+00
1.498142326378965450e+01,7.996378788517432668e+00
1.500142897970848921e+01,7.444853069344762986e+00
1.502143469562732214e+01,8.066723226604212371e+00
1.504144041154615508e+01,8.108788728684796610e+00
1.506144612746498979e+01,8.186179203806025484e+00
1.508145184338382450e+01,8.564337997556927817e+00
1.510145755930265921e+01,7.896362972251049328e+00
1.512146327522149214e+01,8.434494596084025630e+00
1.514146899114032507e+01,8.672824372136684445e+00
1.516147470705915978e+01,9.344402624509729804e+00
1.518148042297799449e+01,8.299780699334444733e+00
1.520148613889682920e+01,9.099189769803331274e+00
1.522149185481566214e+01,9.209169748333206229e+00
1.524149757073449507e+01,8.848722301244521304e+00
1.526150328665332978e+01,9.585436010447409672e+00
1.528150900257216449e+01,9.395338600509443694e+00
1.530151471849099742e+01,9.541793375823768741e+00
1.532152043440983036e+01,9.606360454119226233e+00
1.534152615032866507e+01,9.394028254648787879e+00
1.536153186624749978e+01,1.055958192042525923e+01
1.538153758216633449e+01,9.889119389857690123e+00
1.540154329808516742e+01,1.088223252411969888e+01
1.542154901400400036e+01,1.130478537738661871e+01
1.544155472992283507e+01,1.080531859776878179e+01
1.546156044584166978e+01,1.172827785359389274e+01
1.548156616176050449e+01,1.048305889193365559e+01
1.550157187767933742e+01,1.145624019960713369e+01
1.552157759359817035e+01,1.166890218020156667e+01
1.554158330951700506e+01,1.194635000301837735e+01
1.556158902543583977e+01,1.133818062672443538e+01
1.558159474135467271e+01,1.186307073566028158e+01
1.560160045727350742e+01,1.221633778349983146e+01
1.562160617319234035e+01,1.128969472787193595e+01
1.564161188911117506e+01,1.158383587780640767e+01
1.566161760503000977e+01,1.139065751762496603e+01
1.568162332094884270e+01,1.089060416424577227e+01
1.570162903686767564e+01,1.108656498173180083e+01
1.572163475278651035e+01,1.078095902275888562e+01
1.574164046870534506e+01,1.043898678259879276e+01
1.576164618462417977e+01,9.893341646246831544e+00
1.578165190054301270e+01,9.177773909815449827e+00
1.580165761646184563e+01,9.484037863243365507e+00
1.582166333238068034e+01,9.544429114124284297e+00
1.584166904829951505e+01,8.814135939324073021e+00
1.586167476421834799e+01,9.004087427656386922e+00
1.588168048013718270e+01,8.202844298111365617e+00
1.590168619605601563e+01,8.211290872980878675e+00
1.592169191197485034e+01,8.610509615124794180e+00
1.594169762789368505e+01,7.599132683786924858e+00
1.596170334381251799e+01,7.440200115786000268e+00
1.598170905973135092e+01,7.667693497270601455e+00
1.600171477565018563e+01,8.444266730267427690e+00
1.602172049156902034e+01,7.339251263932469627e+00
1.604172620748785505e+01,8.158174302147195078e+00
1.606173192340668976e+01,8.387896331211006640e+00
1.608173763932552092e+01,8.741193669159848412e+00
1.610174335524435563e+01,7.655937977845692188e+00
1.612174907116319034e+01,8.567737870707652803e+00
1.614175478708202505e+01,9.008350245010007029e+00
1.616176050300085620e+01,8.806017490680989823e+00
1.618176621891969091e+01,9.316270829864215841e+00
1.620177193483852562e+01,9.032084316446503891e+00
1.622177765075736033e+01,8.984452583880644383e+00
1.624178336667619504e+01,9.723014386594140746e+00
1.626178908259502620e+01,9.403771574916586218e+00
1.628179479851386091e+01,9.709924208351129238e+00
1.630180051443269562e+01,1.105167157592241090e+01
1.632180623035153033e+01,1.087477277834224232e+01
1.634181194627036149e+01,1.039474959778435093e+01
1.636181766218919620e+01,1.124665713239625120e+01
1.638182337810803091e+01,1.203505230066933507e+01
1.640182909402686562e+01,1.199587214571262095e+01
1.642183480994570033e+01,1.242626036081196617e+01
1.644184052586453504e+01,1.222040094358628615e+01
1.646184624178336620e+01,1.256650698953435707e+01
1.648185195770220091e+01,1.356266176941534241e+01
1.650185767362103562e+01,1.314231849372098182e+01
1.652186338953986677e+01,1.373685409988688022e+01
1.654186910545870148e+01,1.436682860623626290e+01
1.656187482137753619e+01,1.433782213732638766e+01
1.658188053729637090e+01,1.434080887295620776e+01
1.660188625321520561e+01,1.512385263787606604e+01
1.662189196913404032e+01,1.495612584798270639e+01
1.664189768505287148e+01,1.555449725106715064e+01
1.666190340097170619e+01,1.652897728299967994e+01
1.668190911689054090e+01,1.669401830811954568e+01
1.670191483280937561e+01,1.687875835509753131e+01
1.672192054872820677e+01,1.798259394461211258e+01
1.674192626464704148e+01,1.797923925056109340e+01
1.676193198056587619e+01,1.846319096076795674e+01
1.678193769648471090e+01,1.892528444218955741e+01
1.680194341240354561e+01,1.973236699258156790e+01
1.682194912832238032e+01,1.994688277095593776e+01
1.684195484424121148e+01,2.011363991535857565e+01
1.686196056016004619e+01,2.131041688181708338e+01
1.688196627607888090e+01,2.233556283616226779e+01
1.690197199199771205e+01,2.235373731353489291e+01
1.692197770791654676e+01,2.318265368873041155e+01
1.694198342383538147e+01,2.374656110855465130e+01
1.696198913975421618e+01,2.411357756501578820e+01
1.698199485567305089e+01,2.552268383785290951e+01
1.700200057159188560e+01,2.534934652702335711e+01
1.702200628751071676e+01,2.651680269986334793e+01
1.704201200342955147e+01,2.705626287783729822e+01
1.706201771934838618e+01,2.855292676307140454e+01
1.708202343526722089e+01,2.909328451009381311e+01
1.710202915118605205e+01,2.893126332526262701e+01
1.712203486710488676e+01,2.998189436598175206e+01
1.714204058302372147e+01,3.102390815734313634e+01
1.716204629894255618e+01,3.086279051374195603e+01
1.718205201486139089e+01,3.100595845714583731e+01
1.720205773078022204e+01,3.303053663818070618e+01
1.722206344669905675e+01,3.292337862470471066e+01
1.724206916261789146e+01,3.266803670668453918e+01
1.726207487853672617e+01,3.328366758851602469e+01
1.728208059445555733e+01,3.380000008242919307e+01
1.730208631037439204e+01,3.390962237301506832e+01
1.732209202629322675e+01,3.248293805187770289e+01
1.734209774221206146e+01,3.283565739240441417e+01
1.736210345813089617e+01,3.207915379494282604e+01
1.738210917404973088e+01,3.153899458265051337e+01
1.740211488996856204e+01,3.092571267047769368e+01
1.742212060588739675e+01,3.069957193215696378e+01
1.744212632180623146e+01,2.870331185260327089e+01
1.746213203772506262e+01,2.747977811141661775e+01
1.748213775364389733e+01,2.609892525011748532e+01
1.750214346956273204e+01,2.442932654810709892e+01
1.752214918548156675e+01,2.287896504625854988e+01
1.754215490140040146e+01,2.175157550171754650e+01
1.756216061731923617e+01,1.951766159438509618e+01
1.758216633323806732e+01,1.889288378269482394e+01
1.760217204915690203e+01,1.749485565861384373e+01
1.762217776507573674e+01,1.550759494893556578e+01
1.764218348099457145e+01,1.528870328403940881e+01
1.766218919691340261e+01,1.483893609506028888e+01
1.768219491283223732e+01,1.343177581955575306e+01
1.770220062875107203e+01,1.290633798657007247e+01
1.772220634466990674e+01,1.113658441563249646e+01
1.774221206058874145e+01,1.137260023239177897e+01
1.776221777650757616e+01,1.168594262702292497e+01
1.778222349242640732e+01,1.065979146824405532e+01
1.780222920834524203e+01,1.073140426032104244e+01
1.782223492426407674e+01,1.029109169997342477e+01
1.784224064018290790e+01,1.136750137586893672e+01
1.786224635610174261e+01,1.090543579882084302e+01
1.788225207202057732e+01,1.143423754784397772e+01
1.790225778793941203e+01,1.184947881765492106e+01
1.792226350385824674e+01,1.149478651943644536e+01
1.794226921977708145e+01,1.178973720787162982e+01
1.796227493569591260e+01,1.118463662485372012e+01
