angle,intensity
1.000000000000000000e+01,8.752872733821149609e+01
1.002000571591883471e+01,8.820400803430472081e+01
1.004001143183766764e+01,8.779765733101761782e+01
1.006001714775650235e+01,8.747914580749494462e+01
1.008002286367533529e+01,8.862491827895171070e+01
1.010002857959417000e+01,8.804440980020110885e+01
1.012003429551300293e+01,8.716867256749904413e+01
1.014004001143183764e+01,8.710250711806062895e+01
1.016004572735067235e+01,8.675343703288176300e+01
1.018005144326950528e+01,8.499237850128973548e+01
1.020005715918833999e+01,8.445727033144868301e+01
1.022006287510717293e+01,8.140753203123765047e+01
1.024006859102600764e+01,8.002073374522765903e+01
1.026007430694484057e+01,7.682778973237579123e+01
1.028008002286367528e+01,7.293647589480413274e+01
1.030008573878250999e+01,6.804192406824141415e+01
1.032009145470134293e+01,6.395283209118617407e+01
1.034009717062017764e+01,5.833531583951360489e+01
1.036010288653901057e+01,5.444687193781442147e+01
1.038010860245784528e+01,4.788764030732245658e+01
1.040011431837667999e+01,4.314124315206687044e+01
1.042012003429551292e+01,3.817597387502376449e+01
1.044012575021434763e+01,3.311459432036559036e+01
1.046013146613318057e+01,2.766369503466441415e+01
1.048013718205201528e+01,2.414463209780339170e+01
1.050014289797084821e+01,2.100074865860394979e+01
1.052014861388968292e+01,1.761283793105885209e+01
1.054015432980851585e+01,1.383910822404278562e+01
1.056016004572735056e+01,1.280173195823425658e+01
1.058016576164618527e+01,9.257945726429738897e+00
1.060017147756501821e+01,8.891882918149544679e+00
1.062017719348385292e+01,6.929940505594300859e+00
1.064018290940268585e+01,6.777249900303948138e+00
1.066018862532152056e+01,6.070795850975158281e+00
1.068019434124035527e+01,5.706729215495505159e+00
1.070020005715918820e+01,5.543204059223230118e+00
1.072020577307802292e+01,5.355181702121401877e+00
1.074021148899685585e+01,3.950191979233393269e+00
1.076021720491569056e+01,3.836922738931658028e+00
1.078022292083452349e+01,3.042849695629052498e+00
1.080022863675335820e+01,3.920085202502181065e+00
1.082023435267219291e+01,3.104966563410224367e+00
1.084024006859102585e+01,2.734238387391423775e+00
1.086024578450986056e+01,2.975201698018985486e+00
1.088025150042869349e+01,2.253957429827078585e+00
1.090025721634752820e+01,3.771674989333646533e+00
1.092026293226636113e+01,2.914592535846843635e+00
1.094026864818519584e+01,3.035781250675704701e+00
1.096027436410403055e+01,1.958373411937257114e+00
1.098028008002286349e+01,3.333517802139454034e+00
1.100028579594169820e+01,1.811190987767161920e+00
1.102029151186053113e+01,2.475170578002530153e+00
1.104029722777936584e+01,1.682135142058554855e+00
1.106030294369819877e+01,1.545692288335830167e+00
1.108030865961703348e+01,2.787642562128104906e+00
1.110031437553586819e+01,2.825892096066264347e+00
1.112032009145470113e+01,1.888714234975093387e+00
1.114032580737353584e+01,2.207881254644974867e+00
1.116033152329236877e+01,2.260228419597866800e+00
1.118033723921120348e+01,1.939959194632006056e+00
1.120034295513003642e+01,2.485551826288719734e+00
1.122034867104887113e+01,2.102683586220579048e+00
1.124035438696770584e+01,1.286113987197762931e+00
1.126036010288653877e+01,2.663814014845000688e+00
1.128036581880537348e+01,1.338067837907508162e+00
1.130037153472420641e+01,2.203155406892779222e+00
1.132037725064304112e+01,1.998121539803497937e+00
1.134038296656187583e+01,1.327241021328813941e+00
1.136038868248070877e+01,1.420880593177692885e+00
1.138039439839954348e+01,2.991473782042962881e+00
1.140040011431837641e+01,1.711387222668171670e+00
1.142040583023721112e+01,1.516019455829536344e+00
1.144041154615604405e+01,2.816933055949118803e+00
1.146041726207487876e+01,2.876255894924370615e+00
1.148042297799371170e+01,2.813354556777035498e+00
1.150042869391254641e+01,1.194489026942981091e+00
1.152043440983138112e+01,1.979724003652223896e+00
1.154044012575021405e+01,1.792715337196374659e+00
1.156044584166904876e+01,1.078349793104252496e+00
1.158045155758788169e+01,1.705864687749845565e+00
1.160045727350671640e+01,2.821099477241444387e+00
1.162046298942555111e+01,2.253293548901706522e+00
1.164046870534438405e+01,1.055816910666679709e+00
1.166047442126321876e+01,2.234665709386947530e+00
1.168048013718205169e+01,1.685097630217873732e+00
1.170048585310088640e+01,1.486233979187938870e+00
1.172049156901971934e+01,1.731637717974106705e+00
1.174049728493855405e+01,2.428925142952206073e+00
1.176050300085738698e+01,1.382658674833245671e+00
1.178050871677622169e+01,2.387934701133256343e+00
1.180051443269505640e+01,1.968943840574796766e+00
1.182052014861388933e+01,2.640977122482607964e+00
1.184052586453272404e+01,1.265978884224640666e+00
1.186053158045155698e+01,2.873874913622787464e+00
1.188053729637039169e+01,1.773954365727951732e+00
1.190054301228922640e+01,2.548113104164666076e+00
1.192054872820805933e+01,1.411013447934160503e+00
1.194055444412689404e+01,2.147910210907880479e+00
1.196056016004572697e+01,1.662793067835779182e+00
1.198056587596456168e+01,1.620976034981010283e+00
1.200057159188339639e+01,2.282183428003763837e+00
1.202057730780222933e+01,1.605698113373905001e+00
1.204058302372106226e+01,1.514329119099641074e+00
1.206058873963989697e+01,2.093563533338189231e+00
1.208059445555873168e+01,1.846243571639430536e+00
1.210060017147756461e+01,2.209537811176403910e+00
1.212060588739639932e+01,2.798141252753823416e+00
1.214061160331523226e+01,1.506653006877022083e+00
1.216061731923406697e+01,2.575162283625014759e+00
1.218062303515290168e+01,1.745198145516493105e+00
1.220062875107173461e+01,2.433774108353121690e+00
1.222063446699056932e+01,2.806201443155834863e+00
1.224064018290940226e+01,2.532528578213856907e+00
1.226064589882823697e+01,1.742965192366253024e+00
1.228065161474707168e+01,1.458205996126145099e+00
1.230065733066590461e+01,2.474814960141124232e+00
1.232066304658473754e+01,1.259124098338786801e+00
1.234066876250357225e+01,1.382851464233934236e+00
1.236067447842240696e+01,2.770083263859805189e+00
1.238068019434123990e+01,2.427552635456012631e+00
1.240068591026007461e+01,1.720084108345321550e+00
1.242069162617890754e+01,1.363327388619435920e+00
1.244069734209774225e+01,2.256029377802340363e+00
1.246070305801657696e+01,2.550946230612111787e+00
1.248070877393540989e+01,1.094190504403040443e+00
1.250071448985424460e+01,1.961628810504606024e+00
1.252072020577307754e+01,1.257500088088490120e+00
1.254072592169191225e+01,2.373052378175499300e+00
1.256073163761074696e+01,2.472479794647367335e+00
1.258073735352957989e+01,1.763610704401282314e+00
1.260074306944841460e+01,2.984166371976380461e+00
1.262074878536724754e+01,1.468797123322830078e+00
1.264075450128608225e+01,2.239274807512734000e+00
1.266076021720491518e+01,1.213713017188482679e+00
1.268076593312374989e+01,1.208788572812858897e+00
1.270077164904258282e+01,2.662507796593143627e+00
1.272077736496141753e+01,2.855930745228098644e+00
1.274078308088025224e+01,1.944553781272880366e+00
1.276078879679908518e+01,2.029557626804565640e+00
1.278079451271791989e+01,1.371095909481436115e+00
1.280080022863675282e+01,2.244406676662157096e+00
1.282080594455558753e+01,1.250349310488446219e+00
1.284081166047442224e+01,2.203956475018940875e+00
1.286081737639325517e+01,2.112479129304201564e+00
1.288082309231208988e+01,2.864081405495284560e+00
1.290082880823092282e+01,2.418112606735691728e+00
1.292083452414975753e+01,3.025805799754992087e+00
1.294084024006859224e+01,1.468340461251484097e+00
1.296084595598742517e+01,3.040811524305448987e+00
1.298085167190625810e+01,2.577822291935099042e+00
1.300085738782509281e+01,1.451951823011428111e+00
1.302086310374392752e+01,1.911474822921041872e+00
1.304086881966276046e+01,1.259270065713154141e+00
1.306087453558159517e+01,1.931535134315953917e+00
1.308088025150042810e+01,2.382283325776944682e+00
1.310088596741926281e+01,2.903135917129070709e+00
1.312089168333809752e+01,2.196948115863801121e+00
1.314089739925693046e+01,1.556249799881280316e+00
1.316090311517576517e+01,2.121276482701109245e+00
1.318090883109459810e+01,2.520930843309869829e+00
1.320091454701343281e+01,2.403810068490643825e+00
1.322092026293226752e+01,1.535796403192597248e+00
1.324092597885110045e+01,2.505547080485297062e+00
1.326093169476993339e+01,2.780852558081266412e+00
1.328093741068876810e+01,2.200880186774128777e+00
1.330094312660760281e+01,2.783996526652217973e+00
1.332094884252643574e+01,2.071626023172536080e+00
1.334095455844527045e+01,1.878493638772348318e+00
1.336096027436410338e+01,2.593368932790860004e+00
1.338096599028293809e+01,2.298126488137421042e+00
1.340097170620177280e+01,2.852378974403245504e+00
1.342097742212060574e+01,1.761358062611450226e+00
1.344098313803944045e+01,1.981897421432331496e+00
1.346098885395827338e+01,2.008965179420930891e+00
1.348099456987710809e+01,1.817961112087179698e+00
1.350100028579594280e+01,2.976594951165848713e+00
1.352100600171477573e+01,3.053055401953999937e+00
1.354101171763361044e+01,2.578452359908851577e+00
1.356101743355244338e+01,1.949531742588995087e+00
1.358102314947127809e+01,1.349914090033121683e+00
1.360102886539011102e+01,2.208957833272192861e+00
1.362103458130894573e+01,1.422125965194200647e+00
1.364104029722777867e+01,1.423899002861892749e+00
1.366104601314661338e+01,3.176015156153984886e+00
1.368105172906544809e+01,1.816615969573440292e+00
1.370105744498428102e+01,1.606796202359470405e+00
1.372106316090311573e+01,1.688008847055392003e+00
1.374106887682194866e+01,2.357055967536023200e+00
1.376107459274078337e+01,2.729927516697847611e+00
1.378108030865961808e+01,2.212713675247679479e+00
1.380108602457845102e+01,1.645392010217212375e+00
1.382109174049728573e+01,2.918534404225993306e+00
1.384109745641611866e+01,3.251444298971908342e+00
1.386110317233495337e+01,2.496542672217331837e+00
1.388110888825378808e+01,1.363188133370728750e+00
1.390111460417262101e+01,1.396247009382230342e+00
1.392112032009145395e+01,2.411343289183301319e+00
1.394112603601028866e+01,1.496468928550272581e+00
1.396113175192912337e+01,3.191584606642651867e+00
1.398113746784795630e+01,1.801158289830107728e+00
1.400114318376679101e+01,2.450853567614357686e+00
1.402114889968562395e+01,1.544666122133707242e+00
1.404115461560445866e+01,1.804661380295691675e+00
1.406116033152329337e+01,2.050323033581897381e+00
1.408116604744212630e+01,2.136979808451372254e+00
1.410117176336095923e+01,1.503767066537212038e+00
1.412117747927979394e+01,1.552496371337532155e+00
1.414118319519862865e+01,2.113255023727460102e+00
1.416118891111746336e+01,2.307131655329056841e+00
1.418119462703629630e+01,1.936322456279543358e+00
1.420120034295512923e+01,1.929616735050832421e+00
1.422120605887396394e+01,3.210276346007788106e+00
1.424121177479279865e+01,3.322603011589220667e+00
1.426121749071163336e+01,2.550758950283280591e+00
1.428122320663046629e+01,1.982775519488498173e+00
1.430122892254929923e+01,3.087718167060482966e+00
1.432123463846813394e+01,2.721565933151051553e+00
1.434124035438696865e+01,2.747423088139050229e+00
1.436124607030580158e+01,2.911637414118914080e+00
1.438125178622463629e+01,1.633977655693753972e+00
1.440125750214346922e+01,3.209321302824343025e+00
1.442126321806230393e+01,2.387437474514773950e+00
1.444126893398113864e+01,3.330821116274482296e+00
1.446127464989997158e+01,2.216063925986079486e+00
1.448128036581880451e+01,2.805015765247039994e+00
1.450128608173763922e+01,3.259252143768226695e+00
1.452129179765647393e+01,2.932632198227588916e+00
1.454129751357530864e+01,2.079363095864208866e+00
1.456130322949414158e+01,2.976166621202612106e+00
1.458130894541297451e+01,2.757417220443294958e+00
1.460131466133180922e+01,3.226212744333319726e+00
1.462132037725064393e+01,2.622930400435221632e+00
1.464132609316947686e+01,2.092258412032220960e+00
1.466133180908831157e+01,3.438251152537323829e+00
1.468133752500714451e+01,2.769393691810158042e+00
1.470134324092597922e+01,2.225691939991812252e+00
1.472134895684481393e+01,2.888809796325045642e+00
1.474135467276364686e+01,3.007102743704050507e+00
1.476136038868247979e+01,2.866829770225585605e+00
1.478136610460131450e+01,3.275496596882358613e+00
1.480137182052014921e+01,3.254956461672367851e+00
1.482137753643898392e+01,2.032803303303751807e+00
1.484138325235781686e+01,3.265851143929003886e+00
1.486138896827664979e+01,3.478476822155956327e+00
1.488139468419548450e+01,2.274439750946692484e+00
1.490140040011431921e+01,2.844333812236284231e+00
1.492140611603315392e+01,2.965428258864328370e+00
1.494141183195198685e+01,2.262379411672436280e+00
1.496141754787081979e+01,2.764381853003684775e+00
1.498142326378965450e+01,3.516886191151178842e+00
1.500142897970848921e+01,2.286942634739504765e+00
1.502143469562732214e+01,2.137523876013911028e+00
1.504144041154615508e+01,3.435904202997342338e+00
1.506144612746498979e+01,2.493603313307572122e+00
1.508145184338382450e+01,1.805585036167711044e+00
1.510145755930265921e+01,3.327649136605651758e+00
1.512146327522149214e+01,2.451521336867510392e+00
1.514146899114032507e+01,3.003957194504819128e+00
1.516147470705915978e+01,3.288687862279879415e+00
1.518148042297799449e+01,2.518735147608669678e+00
1.520148613889682920e+01,3.340273847846157551e+00
1.522149185481566214e+01,3.361575047089594648e+00
1.524149757073449507e+01,3.317241186900399263e+00
1.526150328665332978e+01,3.537512782284839119e+00
1.528150900257216449e+01,2.831575172246111105e+00
1.530151471849099742e+01,2.676972028294557493e+00
1.532152043440983036e+01,2.018238776910180832e+00
1.534152615032866507e+01,2.276570782554362626e+00
1.536153186624749978e+01,3.102102403975397049e+00
1.538153758216633449e+01,2.824458411171661076e+00
1.540154329808516742e+01,3.356208978277811283e+00
1.542154901400400036e+01,2.504715618095253227e+00
1.544155472992283507e+01,1.949278378498636943e+00
1.546156044584166978e+01,2.664594217999536330e+00
1.548156616176050449e+01,2.560183660475002565e+00
1.550157187767933742e+01,3.620388644064826966e+00
1.552157759359817035e+01,3.638931978729758931e+00
1.554158330951700506e+01,3.619258044787962980e+00
1.556158902543583977e+01,2.279086878411516359e+00
1.558159474135467271e+01,3.145005080892116833e+00
1.560160045727350742e+01,2.399863457646935316e+00
1.562160617319234035e+01,2.439209601364393798e+00
1.564161188911117506e+01,2.516205073572816087e+00
1.566161760503000977e+01,2.367781555933075932e+00
1.568162332094884270e+01,3.239502562812805575e+00
1.570162903686767564e+01,2.829014098760031626e+00
1.572163475278651035e+01,3.207973458575290149e+00
1.574164046870534506e+01,2.947147351551766103e+00
1.576164618462417977e+01,2.702397688655844732e+00
1.578165190054301270e+01,3.002055158533553314e+00
1.580165761646184563e+01,3.334606489703711318e+00
1.582166333238068034e+01,3.559700666640422728e+00
1.584166904829951505e+01,2.716534240761053098e+00
1.586167476421834799e+01,3.509741637709689055e+00
1.588168048013718270e+01,1.979836855084027736e+00
1.590168619605601563e+01,3.542365498419120851e+00
1.592169191197485034e+01,3.493972288599960674e+00
1.594169762789368505e+01,2.541306373266604801e+00
1.596170334381251799e+01,2.487826510493519994e+00
1.598170905973135092e+01,2.840043345020827115e+00
1.600171477565018563e+01,2.006807309610096013e+00
1.602172049156902034e+01,2.057548300437085143e+00
1.604172620748785505e+01,3.538181572592717927e+00
1.606173192340668976e+01,3.806982943380438300e+00
1.608173763932552092e+01,3.115627720493080677e+00
1.610174335524435563e+01,3.654951933323181468e+00
1.612174907116319034e+01,2.953126839751385901e+00
1.614175478708202505e+01,3.817393693512606934e+00
1.616176050300085620e+01,1.993532464439075502e+00
1.618176621891969091e+01,3.377276782205038685e+00
1.620177193483852562e+01,2.466835684903193826e+00
1.622177765075736033e+01,3.066015125351256643e+00
1.624178336667619504e+01,2.636220187307806828e+00
1.626178908259502620e+01,2.743869175973991048e+00
1.628179479851386091e+01,3.320149677684234302e+00
1.630180051443269562e+01,3.849101336539596740e+00
1.632180623035153033e+01,3.928889038836085312e+00
1.634181194627036149e+01,3.549924786743764216e+00
1.636181766218919620e+01,3.407860087905316249e+00
1.638182337810803091e+01,2.435952843904543919e+00
1.640182909402686562e+01,3.465487836369755659e+00
1.642183480994570033e+01,3.876511318589170418e+00
1.644184052586453504e+01,2.837521876614725880e+00
1.646184624178336620e+01,2.311260232203523390e+00
1.648185195770220091e+01,3.491626266025775749e+00
1.650185767362103562e+01,3.165391727360255647e+00
1.652186338953986677e+01,2.962384005480025895e+00
1.654186910545870148e+01,3.874035335644511857e+00
1.656187482137753619e+01,3.083482061328422841e+00
1.658188053729637090e+01,4.043568726431109539e+00
1.660188625321520561e+01,3.224522109891463817e+00
1.662189196913404032e+01,3.236954488257055118e+00
1.664189768505287148e+01,3.292175502936849796e+00
1.666190340097170619e+01,3.002474121648721184e+00
1.668190911689054090e+01,4.382910165439208861e+00
1.670191483280937561e+01,2.929143822218425175e+00
1.672192054872820677e+01,4.386638180755124239e+00
1.674192626464704148e+01,2.692372656012599563e+00
1.676193198056587619e+01,3.868344191520370234e+00
1.678193769648471090e+01,4.529780747052655876e+00
1.680194341240354561e+01,4.624904508403556491e+00
1.682194912832238032e+01,3.575250369556140395e+00
1.684195484424121148e+01,4.516213798913013555e+00
1.686196056016004619e+01,2.941532415186293381e+00
1.688196627607888090e+01,4.264489373369321434e+00
1.690197199199771205e+01,4.819595397649860224e+00
1.692197770791654676e+01,3.491767562508863332e+00
1.694198342383538147e+01,4.508873201151011756e+00
1.696198913975421618e+01,5.120887058782403578e+00
1.698199485567305089e+01,3.715401040938172361e+00
1.700200057159188560e+01,3.481123912458073288e+00
1.702200628751071676e+01,4.009921177549145455e+00
1.704201200342955147e+01,4.030334202121485632e+00
1.706201771934838618e+01,4.771396327376039359e+00
1.708202343526722089e+01,4.807150961724516947e+00
1.710202915118605205e+01,5.614978627612698503e+00
1.712203486710488676e+01,3.961906125723149596e+00
1.714204058302372147e+01,5.218691987902039031e+00
1.716204629894255618e+01,4.513739553429955365e+00
1.718205201486139089e+01,4.194383568137123319e+00
1.720205773078022204e+01,4.280872712757823884e+00
1.722206344669905675e+01,5.076923190351021908e+00
1.724206916261789146e+01,5.460889147445546321e+00
1.726207487853672617e+01,5.433247251752039375e+00
1.728208059445555733e+01,6.513602108538994351e+00
1.730208631037439204e+01,5.844995748834874050e+00
1.732209202629322675e+01,5.854860620666620719e+00
1.734209774221206146e+01,5.512356175675128256e+00
1.736210345813089617e+01,6.674690865403131390e+00
1.738210917404973088e+01,5.687746088925848653e+00
1.740211488996856204e+01,6.688152073011558230e+00
1.742212060588739675e+01,6.899577020133305538e+00
1.744212632180623146e+01,7.046982781810067209e+00
1.746213203772506262e+01,7.049028941347188493e+00
1.748213775364389733e+01,7.775063948966833394e+00
1.750214346956273204e+01,6.736137018185381464e+00
1.752214918548156675e+01,7.614138441224584497e+00
1.754215490140040146e+01,7.194595005656507780e+00
1.756216061731923617e+01,6.984347920497023132e+00
1.758216633323806732e+01,8.686675339063205215e+00
1.760217204915690203e+01,7.691482787564956958e+00
1.762217776507573674e+01,9.152252511588274686e+00
1.764218348099457145e+01,7.995585640802323368e+00
1.766218919691340261e+01,8.083588227590880138e+00
1.768219491283223732e+01,8.859746259095148346e+00
1.770220062875107203e+01,8.940306051064457193e+00
1.772220634466990674e+01,8.570934849032790126e+00
1.774221206058874145e+01,1.033372525483175330e+01
1.776221777650757616e+01,9.900274602899228782e+00
1.778222349242640732e+01,1.102925506370723596e+01
1.780222920834524203e+01,9.970782177775751265e+00
1.782223492426407674e+01,1.086156915304930237e+01
1.784224064018290790e+01,1.065496997744623187e+01
1.786224635610174261e+01,1.182358765927664557e+01
1.788225207202057732e+01,1.187692144271609607e+01
1.790225778793941203e+01,1.108082239151053550e+01
1.792226350385824674e+01,1.143479694013019277e+01
1.794226921977708145e+01,1.168998380955682670e+01
1.796227493569591260e+01,1.259854853686161391e+01
