angle,intensity
1.000000000000000000e+01,8.466648502646749819e+01
1.002000571591883471e+01,9.952712597416294216e+01
1.004001143183766764e+01,9.946271521572234064e+01
1.006001714775650235e+01,9.951781188135475986e+01
1.008002286367533529e+01,9.956825291984482362e+01
1.010002857959417000e+01,9.908652820569224673e+01
1.012003429551300293e+01,9.937030183728964516e+01
1.014004001143183764e+01,9.872883233857757546e+01
1.016004572735067235e+01,9.759098626232889728e+01
1.018005144326950528e+01,9.778503488036140823e+01
1.020005715918833999e+01,9.655628038574926109e+01
1.022006287510717293e+01,9.557701714521942904e+01
1.024006859102600764e+01,9.448859965100817249e+01
1.026007430694484057e+01,9.363388339004282557e+01
1.028008002286367528e+01,9.203649766007632138e+01
1.030008573878250999e+01,9.106617027756809080e+01
1.032009145470134293e+01,8.998959134955075001e+01
1.034009717062017764e+01,8.865796901857819989e+01
1.036010288653901057e+01,8.703444244403240759e+01
1.038010860245784528e+01,8.515017562526614370e+01
1.040011431837667999e+01,8.329603383977723752e+01
1.042012003429551292e+01,8.061601786672292747e+01
1.044012575021434763e+01,7.863666947364509952e+01
1.046013146613318057e+01,7.620134484834825628e+01
1.048013718205201528e+01,7.315693631856460399e+01
1.050014289797084821e+01,7.034332303290777588e+01
1.052014861388968292e+01,6.765897229303070048e+01
1.054015432980851585e+01,6.495593773037668939e+01
1.056016004572735056e+01,6.287949952512394702e+01
1.058016576164618527e+01,6.094696349971418670e+01
1.060017147756501821e+01,5.776332079354260429e+01
1.062017719348385292e+01,5.576399509724888048e+01
1.064018290940268585e+01,5.489359894417400199e+01
1.066018862532152056e+01,5.269182286056545195e+01
1.068019434124035527e+01,5.129497860873623694e+01
1.070020005715918820e+01,5.078514953482563499e+01
1.072020577307802292e+01,4.975047440055848824e+01
1.074021148899685585e+01,4.893387898300193228e+01
1.076021720491569056e+01,4.967039191002015741e+01
1.078022292083452349e+01,4.949240439825206295e+01
1.080022863675335820e+01,4.907305185445611784e+01
1.082023435267219291e+01,4.831549906541222583e+01
1.084024006859102585e+01,4.881142847680904850e+01
1.086024578450986056e+01,4.853107586841659327e+01
1.088025150042869349e+01,4.886115469578356141e+01
1.090025721634752820e+01,4.863157638376166858e+01
1.092026293226636113e+01,4.907044253633767994e+01
1.094026864818519584e+01,4.950155760162713392e+01
1.096027436410403055e+01,4.980874433476866159e+01
1.098028008002286349e+01,4.986002238454715041e+01
1.100028579594169820e+01,5.011870432020729993e+01
1.102029151186053113e+01,4.921576258030577833e+01
1.104029722777936584e+01,4.968288248319618106e+01
1.106030294369819877e+01,4.971855265698373927e+01
1.108030865961703348e+01,4.931058320341958279e+01
1.110031437553586819e+01,4.927617090421033197e+01
1.112032009145470113e+01,4.868603405070741985e+01
1.114032580737353584e+01,4.828638575726085236e+01
1.116033152329236877e+01,4.755946429432091804e+01
1.118033723921120348e+01,4.635784091247568028e+01
1.120034295513003642e+01,4.534257441078325002e+01
1.122034867104887113e+01,4.484281392882348172e+01
1.124035438696770584e+01,4.390767481384925475e+01
1.126036010288653877e+01,4.326179147772329259e+01
1.128036581880537348e+01,4.284860091570239149e+01
1.130037153472420641e+01,4.143397862674044063e+01
1.132037725064304112e+01,4.033854899436373387e+01
1.134038296656187583e+01,4.022691572873166166e+01
1.136038868248070877e+01,3.982331309690694354e+01
1.138039439839954348e+01,3.945349946753749748e+01
1.140040011431837641e+01,3.819667780694786785e+01
1.142040583023721112e+01,3.821615609240572553e+01
1.144041154615604405e+01,3.830887470182980792e+01
1.146041726207487876e+01,3.832705913686650945e+01
1.148042297799371170e+01,3.818027273981105196e+01
1.150042869391254641e+01,3.830976584090991821e+01
1.152043440983138112e+01,3.908229366284133732e+01
1.154044012575021405e+01,3.905777356032991321e+01
1.156044584166904876e+01,3.931590141949725847e+01
1.158045155758788169e+01,3.996551377295703134e+01
1.160045727350671640e+01,3.979501473684231883e+01
1.162046298942555111e+01,4.130872130017988297e+01
1.164046870534438405e+01,4.147429425173386619e+01
1.166047442126321876e+01,4.245410170762124125e+01
1.168048013718205169e+01,4.303621941756244951e+01
1.170048585310088640e+01,4.410696568500655701e+01
1.172049156901971934e+01,4.500736525480863293e+01
1.174049728493855405e+01,4.531596655725532230e+01
1.176050300085738698e+01,4.631235745923393665e+01
1.178050871677622169e+01,4.740671887190983114e+01
1.180051443269505640e+01,4.861374658697997120e+01
1.182052014861388933e+01,4.957296931622121861e+01
1.184052586453272404e+01,4.951459970771160357e+01
1.186053158045155698e+01,4.974024458414805139e+01
1.188053729637039169e+01,5.106822218887879217e+01
1.190054301228922640e+01,5.221236821485749147e+01
1.192054872820805933e+01,5.401696920242682154e+01
1.194055444412689404e+01,5.455547989870252934e+01
1.196056016004572697e+01,5.550301596148182171e+01
1.198056587596456168e+01,5.627335618827915908e+01
1.200057159188339639e+01,5.685619226815590821e+01
1.202057730780222933e+01,5.745621873350285114e+01
1.204058302372106226e+01,5.912010328284527105e+01
1.206058873963989697e+01,5.923717645948198651e+01
1.208059445555873168e+01,5.987705174357421356e+01
1.210060017147756461e+01,6.079318558900644121e+01
1.212060588739639932e+01,6.116052882247558387e+01
1.214061160331523226e+01,6.261825196975414798e+01
1.216061731923406697e+01,6.320865652368376431e+01
1.218062303515290168e+01,6.263047596053997523e+01
1.220062875107173461e+01,6.408087633731359745e+01
1.222063446699056932e+01,6.340373271283780809e+01
1.224064018290940226e+01,6.459512416065416573e+01
1.226064589882823697e+01,6.379164139852254323e+01
1.228065161474707168e+01,6.388515427194943186e+01
1.230065733066590461e+01,6.402897540472244486e+01
1.232066304658473754e+01,6.402215613385175175e+01
1.234066876250357225e+01,6.278566442601016462e+01
1.236067447842240696e+01,6.182255854382755444e+01
1.238068019434123990e+01,6.099566764426232623e+01
1.240068591026007461e+01,6.028995907239082896e+01
1.242069162617890754e+01,5.859798027739223869e+01
1.244069734209774225e+01,5.827206218577429553e+01
1.246070305801657696e+01,5.779078308910290218e+01
1.248070877393540989e+01,5.535089350935339070e+01
1.250071448985424460e+01,5.374604814989795898e+01
1.252072020577307754e+01,5.350460571220257577e+01
1.254072592169191225e+01,5.254666907095077732e+01
1.256073163761074696e+01,5.121670820878743768e+01
1.258073735352957989e+01,4.999338216666610890e+01
1.260074306944841460e+01,4.922061322511331838e+01
1.262074878536724754e+01,4.790872881290015073e+01
1.264075450128608225e+01,4.665829856853015656e+01
1.266076021720491518e+01,4.616724575860509105e+01
1.268076593312374989e+01,4.521384112676963696e+01
1.270077164904258282e+01,4.382282647552780475e+01
1.272077736496141753e+01,4.211028017693375602e+01
1.274078308088025224e+01,4.066446753567262107e+01
1.276078879679908518e+01,3.930514557575546064e+01
1.278079451271791989e+01,3.860367185787676192e+01
1.280080022863675282e+01,3.761196014155895995e+01
1.282080594455558753e+01,3.557352311697945879e+01
1.284081166047442224e+01,3.369274946917033020e+01
1.286081737639325517e+01,3.231866645950177030e+01
1.288082309231208988e+01,3.131453962449689499e+01
1.290082880823092282e+01,2.986265038210262190e+01
1.292083452414975753e+01,2.863664827270090996e+01
1.294084024006859224e+01,2.761209235053942024e+01
1.296084595598742517e+01,2.649104331855879479e+01
1.298085167190625810e+01,2.607080720007259345e+01
1.300085738782509281e+01,2.534692874185436295e+01
1.302086310374392752e+01,2.402428419752386191e+01
1.304086881966276046e+01,2.430948562579408900e+01
1.306087453558159517e+01,2.421713208726826849e+01
1.308088025150042810e+01,2.375288957928155043e+01
1.310088596741926281e+01,2.394141733892511326e+01
1.312089168333809752e+01,2.358987497190832983e+01
1.314089739925693046e+01,2.243618823776122895e+01
1.316090311517576517e+01,2.348560812235457007e+01
1.318090883109459810e+01,2.327778539139072933e+01
1.320091454701343281e+01,2.217328858604657427e+01
1.322092026293226752e+01,2.303789727321306913e+01
1.324092597885110045e+01,2.302162820801094867e+01
1.326093169476993339e+01,2.287411259131987151e+01
1.328093741068876810e+01,2.168580543839114938e+01
1.330094312660760281e+01,2.202768767993735821e+01
1.332094884252643574e+01,2.186575622866268631e+01
1.334095455844527045e+01,2.203252313806983054e+01
1.336096027436410338e+01,2.141269609504440297e+01
1.338096599028293809e+01,2.112567188928248640e+01
1.340097170620177280e+01,2.097686501065152243e+01
1.342097742212060574e+01,2.130521652332279103e+01
1.344098313803944045e+01,2.029899643292846534e+01
1.346098885395827338e+01,2.000089865418176771e+01
1.348099456987710809e+01,2.065264032463034738e+01
1.350100028579594280e+01,2.066783252221446077e+01
1.352100600171477573e+01,2.017094783801401192e+01
1.354101171763361044e+01,2.053964936009126774e+01
1.356101743355244338e+01,2.020063705516848529e+01
1.358102314947127809e+01,2.098238283419080119e+01
1.360102886539011102e+01,2.155777197807046264e+01
1.362103458130894573e+01,2.062971942527283176e+01
1.364104029722777867e+01,2.090276303330731267e+01
1.366104601314661338e+01,2.095265626125601344e+01
1.368105172906544809e+01,2.148378096102519308e+01
1.370105744498428102e+01,2.169658566617547990e+01
1.372106316090311573e+01,2.288674110698052999e+01
1.374106887682194866e+01,2.344742517836872153e+01
1.376107459274078337e+01,2.354345011954944056e+01
1.378108030865961808e+01,2.404128959032664170e+01
1.380108602457845102e+01,2.444356893477560533e+01
1.382109174049728573e+01,2.441143112408415661e+01
1.384109745641611866e+01,2.538495510129467903e+01
1.386110317233495337e+01,2.464051058778305503e+01
1.388110888825378808e+01,2.658171308914840125e+01
1.390111460417262101e+01,2.653020140444131769e+01
1.392112032009145395e+01,2.749770433341361553e+01
1.394112603601028866e+01,2.754477456280544345e+01
1.396113175192912337e+01,2.798028965627339559e+01
1.398113746784795630e+01,2.733303585959546211e+01
1.400114318376679101e+01,2.737316896538358790e+01
1.402114889968562395e+01,2.856431316599668691e+01
1.404115461560445866e+01,2.893204011876915160e+01
1.406116033152329337e+01,2.864221135420090292e+01
1.408116604744212630e+01,2.879068539211426980e+01
1.410117176336095923e+01,2.947377917271713699e+01
1.412117747927979394e+01,2.959977841679967980e+01
1.414118319519862865e+01,2.856686314124807069e+01
1.416118891111746336e+01,2.852394745889286298e+01
1.418119462703629630e+01,2.780692939493455995e+01
1.420120034295512923e+01,2.832546340200076429e+01
1.422120605887396394e+01,2.742144945448174553e+01
1.424121177479279865e+01,2.604965572165616550e+01
1.426121749071163336e+01,2.651256696140309543e+01
1.428122320663046629e+01,2.505959128950207671e+01
1.430122892254929923e+01,2.386118803965942803e+01
1.432123463846813394e+01,2.285244841126859683e+01
1.434124035438696865e+01,2.099157008157523308e+01
1.436124607030580158e+01,1.973220796548004685e+01
1.438125178622463629e+01,1.883807446588756562e+01
1.440125750214346922e+01,1.830150260284566599e+01
1.442126321806230393e+01,1.713788674044487692e+01
1.444126893398113864e+01,1.543784976326747760e+01
1.446127464989997158e+01,1.451559901744099257e+01
1.448128036581880451e+01,1.276727821952859188e+01
1.450128608173763922e+01,1.274433896777417630e+01
1.452129179765647393e+01,1.136981699605622254e+01
1.454129751357530864e+01,1.114006473196177538e+01
1.456130322949414158e+01,1.040468263674540594e+01
1.458130894541297451e+01,9.617413058203712950e+00
1.460131466133180922e+01,8.746158682176304211e+00
1.462132037725064393e+01,8.873345514393857769e+00
1.464132609316947686e+01,8.265303178921330485e+00
1.466133180908831157e+01,7.849954530996892110e+00
1.468133752500714451e+01,7.328955845968870619e+00
1.470134324092597922e+01,7.172764758134126950e+00
1.472134895684481393e+01,7.555943398053623028e+00
1.474135467276364686e+01,7.305637338687367865e+00
1.476136038868247979e+01,7.151220855997712178e+00
1.478136610460131450e+01,6.393941368803407244e+00
1.480137182052014921e+01,7.297260081424363776e+00
1.482137753643898392e+01,6.435779428258280532e+00
1.484138325235781686e+01,6.152446350766637373e+00
1.486138896827664979e+01,6.603805990180033447e+00
1.488139468419548450e+01,6.497728600212678174e+00
1.490140040011431921e+01,7.042738881143890239e+00
1.492140611603315392e+01,6.038404503999956319e+00
1.494141183195198685e+01,7.186586044008118179e+00
1.496141754787081979e+01,6.546069874388340537e+00
1.498142326378965450e+01,6.912090237743463206e+00
1.500142897970848921e+01,6.599812236800537413e+00
1.502143469562732214e+01,6.131399999613551977e+00
1.504144041154615508e+01,5.957448002037542878e+00
1.506144612746498979e+01,5.469817639009946220e+00
1.508145184338382450e+01,6.700689639542360965e+00
1.510145755930265921e+01,6.576265566705378873e+00
1.512146327522149214e+01,5.926574980955614969e+00
1.514146899114032507e+01,6.218035931666388905e+00
1.516147470705915978e+01,5.758727673664409963e+00
1.518148042297799449e+01,5.560578082453044857e+00
1.520148613889682920e+01,6.536092229078619198e+00
1.522149185481566214e+01,6.104484892600753554e+00
1.524149757073449507e+01,6.894571470663109380e+00
1.526150328665332978e+01,6.740530678040947521e+00
1.528150900257216449e+01,6.293208959020899940e+00
1.530151471849099742e+01,7.193220371377027078e+00
1.532152043440983036e+01,6.449449231256235926e+00
1.534152615032866507e+01,6.356696828807270272e+00
1.536153186624749978e+01,6.958696905250921994e+00
1.538153758216633449e+01,6.773868073755432206e+00
1.540154329808516742e+01,6.379662846416052524e+00
1.542154901400400036e+01,6.705014616935625504e+00
1.544155472992283507e+01,6.926267125234398137e+00
1.546156044584166978e+01,6.887958993340312475e+00
1.548156616176050449e+01,7.094722521873167764e+00
1.550157187767933742e+01,6.897275161461486448e+00
1.552157759359817035e+01,7.436402816795188997e+00
1.554158330951700506e+01,6.430906975647202373e+00
1.556158902543583977e+01,6.932765164621445209e+00
1.558159474135467271e+01,7.575561923334410253e+00
1.560160045727350742e+01,7.376468957217536371e+00
1.562160617319234035e+01,7.234996335884036789e+00
1.564161188911117506e+01,7.273447672368732242e+00
1.566161760503000977e+01,7.021179898267911668e+00
1.568162332094884270e+01,7.235055464180224050e+00
1.570162903686767564e+01,6.974625275164447302e+00
1.572163475278651035e+01,8.204832709128371704e+00
1.574164046870534506e+01,7.164304898137540789e+00
1.576164618462417977e+01,7.265500809900967027e+00
1.578165190054301270e+01,7.083226816863637865e+00
1.580165761646184563e+01,7.236999500850555656e+00
1.582166333238068034e+01,8.360686369997438305e+00
1.584166904829951505e+01,7.537172868240164192e+00
1.586167476421834799e+01,7.717367796183815187e+00
1.588168048013718270e+01,7.583650925295727596e+00
1.590168619605601563e+01,7.418817709307941044e+00
1.592169191197485034e+01,6.792041304946444313e+00
1.594169762789368505e+01,7.095809623140914013e+00
1.596170334381251799e+01,7.927837274640591403e+00
1.598170905973135092e+01,7.063651360515745381e+00
1.600171477565018563e+01,7.594087822981567371e+00
1.602172049156902034e+01,8.050519082733019971e+00
1.604172620748785505e+01,7.335798059581616570e+00
1.606173192340668976e+01,7.607655339036001330e+00
1.608173763932552092e+01,7.599626967364599750e+00
1.610174335524435563e+01,8.248750641806090300e+00
1.612174907116319034e+01,7.904553470412369442e+00
1.614175478708202505e+01,7.729026766359180733e+00
1.616176050300085620e+01,8.141070872623224375e+00
1.618176621891969091e+01,7.588228610234252436e+00
1.620177193483852562e+01,8.663717932001071986e+00
1.622177765075736033e+01,8.212207479782362540e+00
1.624178336667619504e+01,8.435997226551744888e+00
1.626178908259502620e+01,8.552310439359166239e+00
1.628179479851386091e+01,8.378855269007175366e+00
1.630180051443269562e+01,8.900821583932337688e+00
1.632180623035153033e+01,9.354697731168752028e+00
1.634181194627036149e+01,9.387787212296338168e+00
1.636181766218919620e+01,9.834470603057845040e+00
1.638182337810803091e+01,9.876819859127703438e+00
1.640182909402686562e+01,1.044876007915853755e+01
1.642183480994570033e+01,1.011745431641428006e+01
1.644184052586453504e+01,1.066804461467761556e+01
1.646184624178336620e+01,9.824151753456746405e+00
1.648185195770220091e+01,1.091526514270733017e+01
1.650185767362103562e+01,1.127442643420745227e+01
1.652186338953986677e+01,1.137701283560927124e+01
1.654186910545870148e+01,1.131851276451727450e+01
1.656187482137753619e+01,1.141129881293974790e+01
1.658188053729637090e+01,1.202140692584087134e+01
1.660188625321520561e+01,1.233285553363715437e+01
1.662189196913404032e+01,1.215078392415103181e+01
1.664189768505287148e+01,1.308029946586021985e+01
1.666190340097170619e+01,1.276315121632364757e+01
1.668190911689054090e+01,1.321445576790146959e+01
1.670191483280937561e+01,1.344415344184506367e+01
1.672192054872820677e+01,1.361809503391132736e+01
1.674192626464704148e+01,1.481773169904899845e+01
1.676193198056587619e+01,1.480856418958569165e+01
1.678193769648471090e+01,1.514776932907354912e+01
1.680194341240354561e+01,1.549402887976904708e+01
1.682194912832238032e+01,1.591449588591020259e+01
1.684195484424121148e+01,1.610221118366376203e+01
1.686196056016004619e+01,1.639660347674608687e+01
1.688196627607888090e+01,1.694393135768507719e+01
1.690197199199771205e+01,1.731088445539575105e+01
1.692197770791654676e+01,1.742795634984474873e+01
1.694198342383538147e+01,1.836081433628306314e+01
1.696198913975421618e+01,1.869795973832011171e+01
1.698199485567305089e+01,1.827531517101125758e+01
1.700200057159188560e+01,1.903865551216036067e+01
1.702200628751071676e+01,1.909880915965431569e+01
1.704201200342955147e+01,1.925983010186430278e+01
1.706201771934838618e+01,2.059479410066063565e+01
1.708202343526722089e+01,1.970383032720966909e+01
1.710202915118605205e+01,1.973787492144731459e+01
1.712203486710488676e+01,2.009454131602477389e+01
1.714204058302372147e+01,1.965528433220285009e+01
1.716204629894255618e+01,1.979288152437551318e+01
1.718205201486139089e+01,1.992120859298287883e+01
1.720205773078022204e+01,1.947221780982357586e+01
1.722206344669905675e+01,1.962231444656753609e+01
1.724206916261789146e+01,2.010951835476526028e+01
1.726207487853672617e+01,1.862156058501030742e+01
1.728208059445555733e+01,1.847948362012041201e+01
1.730208631037439204e+01,1.776146931403110685e+01
1.732209202629322675e+01,1.775906120487852746e+01
1.734209774221206146e+01,1.696835751592285746e+01
1.736210345813089617e+01,1.610992389629362265e+01
1.738210917404973088e+01,1.548896132216402322e+01
1.740211488996856204e+01,1.531701070574196422e+01
1.742212060588739675e+01,1.391003350326810128e+01
1.744212632180623146e+01,1.397567942781586225e+01
1.746213203772506262e+01,1.364872576218035150e+01
1.748213775364389733e+01,1.238942296449874192e+01
1.750214346956273204e+01,1.235306817899556009e+01
1.752214918548156675e+01,1.121920304561741943e+01
1.754215490140040146e+01,1.190814830761164345e+01
1.756216061731923617e+01,1.193337762116704681e+01
1.758216633323806732e+01,1.115621342711229147e+01
1.760217204915690203e+01,1.075922543038344159e+01
1.762217776507573674e+01,1.175704774481623005e+01
1.764218348099457145e+01,1.124239542895657529e+01
1.766218919691340261e+01,1.155168774730105774e+01
1.768219491283223732e+01,1.095508635800971931e+01
1.770220062875107203e+01,1.181574183116230436e+01
1.772220634466990674e+01,1.176931079607606989e+01
1.774221206058874145e+01,1.295653172757993232e+01
1.776221777650757616e+01,1.152966428002561727e+01
1.778222349242640732e+01,1.185602932361163653e+01
1.780222920834524203e+01,1.270089588347564913e+01
1.782223492426407674e+01,1.294660196897877746e+01
1.784224064018290790e+01,1.333976839234590273e+01
1.786224635610174261e+01,1.332668162857122063e+01
1.788225207202057732e+01,1.448962555623001691e+01
1.790225778793941203e+01,1.374224585384568442e+01
1.792226350385824674e+01,1.462085730328104205e+01
1.794226921977708145e+01,1.501088864081086882e+01
1.796227493569591260e+01,1.508822471063895421e+01
