angle,intensity
1.000000000000000000e+01,8.854324877369046476e+01
1.002000571591883471e+01,8.897663186690132875e+01
1.004001143183766764e+01,9.044748361842812301e+01
1.006001714775650235e+01,9.027961035019046676e+01
1.008002286367533529e+01,9.037262213992605098e+01
1.010002857959417000e+01,9.166525637682383376e+01
1.012003429551300293e+01,9.094194199085441710e+01
1.014004001143183764e+01,9.096220425800503051e+01
1.016004572735067235e+01,9.109980180325339916e+01
1.018005144326950528e+01,9.077200777476100768e+01
1.020005715918833999e+01,9.019369754973484987e+01
1.022006287510717293e+01,8.996102232380994224e+01
1.024006859102600764e+01,8.938277599831191367e+01
1.026007430694484057e+01,8.761377060900628067e+01
1.028008002286367528e+01,8.623081726185543516e+01
1.030008573878250999e+01,8.371417762899955051e+01
1.032009145470134293e+01,8.163341590046886154e+01
1.034009717062017764e+01,7.903417555886119317e+01
1.036010288653901057e+01,7.586696560805876288e+01
1.038010860245784528e+01,7.390989958844802743e+01
1.040011431837667999e+01,6.938268288012929474e+01
1.042012003429551292e+01,6.616885014398441456e+01
1.044012575021434763e+01,6.279963482073583236e+01
1.046013146613318057e+01,5.971196169748046145e+01
1.048013718205201528e+01,5.500760473285734520e+01
1.050014289797084821e+01,5.232876392192017079e+01
1.052014861388968292e+01,4.888797144757189272e+01
1.054015432980851585e+01,4.529571451587781183e+01
1.056016004572735056e+01,4.282577778667290858e+01
1.058016576164618527e+01,3.941187282513172363e+01
1.060017147756501821e+01,3.682862981445718020e+01
1.062017719348385292e+01,3.430561746738993634e+01
1.064018290940268585e+01,3.212193237040230542e+01
1.066018862532152056e+01,3.035556855962112976e+01
1.068019434124035527e+01,2.816067661718890491e+01
1.070020005715918820e+01,2.659326614207064665e+01
1.072020577307802292e+01,2.551941467409906750e+01
1.074021148899685585e+01,2.411544678946794207e+01
1.076021720491569056e+01,2.191260367953488952e+01
1.078022292083452349e+01,2.074488200723207498e+01
1.080022863675335820e+01,1.928208319720843633e+01
1.082023435267219291e+01,1.823761551308854223e+01
1.084024006859102585e+01,1.738576270670871793e+01
1.086024578450986056e+01,1.548637683147719635e+01
1.088025150042869349e+01,1.455521170696554734e+01
1.090025721634752820e+01,1.304521372530523493e+01
1.092026293226636113e+01,1.172670458373987223e+01
1.094026864818519584e+01,1.133368952531509777e+01
1.096027436410403055e+01,1.072466030565153261e+01
1.098028008002286349e+01,1.011713443658298317e+01
1.100028579594169820e+01,8.859554983357590174e+00
1.102029151186053113e+01,9.464032203524997300e+00
1.104029722777936584e+01,8.771327687964353359e+00
1.106030294369819877e+01,8.164972328357961828e+00
1.108030865961703348e+01,7.251653258426096649e+00
1.110031437553586819e+01,6.604605098559869880e+00
1.112032009145470113e+01,7.774866677126660797e+00
1.114032580737353584e+01,7.003953817290465622e+00
1.116033152329236877e+01,5.986909308770098193e+00
1.118033723921120348e+01,6.560553878412300755e+00
1.120034295513003642e+01,5.748035196711049899e+00
1.122034867104887113e+01,6.378488751931527645e+00
1.124035438696770584e+01,5.221315484240115268e+00
1.126036010288653877e+01,5.904982126082373384e+00
1.128036581880537348e+01,5.551562456096817755e+00
1.130037153472420641e+01,5.077921020082169612e+00
1.132037725064304112e+01,5.407242849330421208e+00
1.134038296656187583e+01,5.937580249555383105e+00
1.136038868248070877e+01,5.686089830109114729e+00
1.138039439839954348e+01,4.877008107556292771e+00
1.140040011431837641e+01,5.289083671352067917e+00
1.142040583023721112e+01,5.298481763564744540e+00
1.144041154615604405e+01,4.975032808165191334e+00
1.146041726207487876e+01,4.596810936896694066e+00
1.148042297799371170e+01,5.672894033329187735e+00
1.150042869391254641e+01,5.024006206711655764e+00
1.152043440983138112e+01,4.852619227051110151e+00
1.154044012575021405e+01,5.179487219288883892e+00
1.156044584166904876e+01,5.075948636574984185e+00
1.158045155758788169e+01,4.816263410758834240e+00
1.160045727350671640e+01,5.098131061711972833e+00
1.162046298942555111e+01,4.274749874109649461e+00
1.164046870534438405e+01,5.126964364747010450e+00
1.166047442126321876e+01,4.502675895960747354e+00
1.168048013718205169e+01,4.785909743072505051e+00
1.170048585310088640e+01,4.494477972826556922e+00
1.172049156901971934e+01,5.363661632335992913e+00
1.174049728493855405e+01,4.795036841298124131e+00
1.176050300085738698e+01,4.695408314971659891e+00
1.178050871677622169e+01,3.929509719022606262e+00
1.180051443269505640e+01,4.849514828768677788e+00
1.182052014861388933e+01,4.847264579280240682e+00
1.184052586453272404e+01,4.466321436790398280e+00
1.186053158045155698e+01,4.132667883292909572e+00
1.188053729637039169e+01,4.252973261616447509e+00
1.190054301228922640e+01,4.100482250036139753e+00
1.192054872820805933e+01,4.690956077429467186e+00
1.194055444412689404e+01,4.550770780763840229e+00
1.196056016004572697e+01,4.273228409486121926e+00
1.198056587596456168e+01,4.679696764977991918e+00
1.200057159188339639e+01,3.726549243747959039e+00
1.202057730780222933e+01,4.743223199502203613e+00
1.204058302372106226e+01,4.438095223141308665e+00
1.206058873963989697e+01,3.827949926892850741e+00
1.208059445555873168e+01,4.873887781772043404e+00
1.210060017147756461e+01,4.688927250496007559e+00
1.212060588739639932e+01,4.659972680436865744e+00
1.214061160331523226e+01,5.024817637367652523e+00
1.216061731923406697e+01,4.288756929799949269e+00
1.218062303515290168e+01,3.859108442883839807e+00
1.220062875107173461e+01,4.041390379657708642e+00
1.222063446699056932e+01,4.152483785536750460e+00
1.224064018290940226e+01,4.084216331833558478e+00
1.226064589882823697e+01,5.004769762220552032e+00
1.228065161474707168e+01,5.247800399094940893e+00
1.230065733066590461e+01,4.282042992438242379e+00
1.232066304658473754e+01,4.534396292198143108e+00
1.234066876250357225e+01,4.864995688661323925e+00
1.236067447842240696e+01,4.242512097863640363e+00
1.238068019434123990e+01,4.326924136608155891e+00
1.240068591026007461e+01,3.844825965616999408e+00
1.242069162617890754e+01,5.167059310663102423e+00
1.244069734209774225e+01,3.993502759978659000e+00
1.246070305801657696e+01,4.515472281722247239e+00
1.248070877393540989e+01,4.547384091443450238e+00
1.250071448985424460e+01,4.529710837445592553e+00
1.252072020577307754e+01,4.780977097107315110e+00
1.254072592169191225e+01,5.231219478121960975e+00
1.256073163761074696e+01,4.705228883911659388e+00
1.258073735352957989e+01,4.470310392261573007e+00
1.260074306944841460e+01,4.369180860974573477e+00
1.262074878536724754e+01,5.159087473518782829e+00
1.264075450128608225e+01,4.872964064164984954e+00
1.266076021720491518e+01,4.386623186125327756e+00
1.268076593312374989e+01,5.046674554973073157e+00
1.270077164904258282e+01,5.164958994705703965e+00
1.272077736496141753e+01,4.653364703779514500e+00
1.274078308088025224e+01,5.305573106710387066e+00
1.276078879679908518e+01,5.022064873870126789e+00
1.278079451271791989e+01,5.774506294564006659e+00
1.280080022863675282e+01,5.136540988817614561e+00
1.282080594455558753e+01,5.044749617496303351e+00
1.284081166047442224e+01,4.713994411443559684e+00
1.286081737639325517e+01,5.737502150529070200e+00
1.288082309231208988e+01,5.136344290654390576e+00
1.290082880823092282e+01,5.178821044378280725e+00
1.292083452414975753e+01,4.944070609706062491e+00
1.294084024006859224e+01,5.714379157061415526e+00
1.296084595598742517e+01,4.964267136803355740e+00
1.298085167190625810e+01,4.946663552374271688e+00
1.300085738782509281e+01,6.117727607977037962e+00
1.302086310374392752e+01,5.263446037153194368e+00
1.304086881966276046e+01,5.819192206921855792e+00
1.306087453558159517e+01,5.526608491536341816e+00
1.308088025150042810e+01,5.394802544902599806e+00
1.310088596741926281e+01,6.255681131424859487e+00
1.312089168333809752e+01,5.870467943013544243e+00
1.314089739925693046e+01,6.353395250874838140e+00
1.316090311517576517e+01,6.210116267901339526e+00
1.318090883109459810e+01,6.456126851223784158e+00
1.320091454701343281e+01,5.631425815382048228e+00
1.322092026293226752e+01,6.761159635818975389e+00
1.324092597885110045e+01,6.044865278072396819e+00
1.326093169476993339e+01,6.005686403392626715e+00
1.328093741068876810e+01,6.372256687675098341e+00
1.330094312660760281e+01,6.399142562932336631e+00
1.332094884252643574e+01,6.248706582308609647e+00
1.334095455844527045e+01,6.002661105606437175e+00
1.336096027436410338e+01,6.945714728590911768e+00
1.338096599028293809e+01,5.724241800425978965e+00
1.340097170620177280e+01,6.916085198510293353e+00
1.342097742212060574e+01,6.431439720784783987e+00
1.344098313803944045e+01,6.600790724948029542e+00
1.346098885395827338e+01,6.952104557613867364e+00
1.348099456987710809e+01,7.585016136185343427e+00
1.350100028579594280e+01,6.843825943819628499e+00
1.352100600171477573e+01,6.927609042121551042e+00
1.354101171763361044e+01,7.655802480218204309e+00
1.356101743355244338e+01,7.271228966907958835e+00
1.358102314947127809e+01,6.938689104678216424e+00
1.360102886539011102e+01,7.028449509412171281e+00
1.362103458130894573e+01,7.475002541186919203e+00
1.364104029722777867e+01,7.552452510361435500e+00
1.366104601314661338e+01,6.955820165977507408e+00
1.368105172906544809e+01,7.978694135498413331e+00
1.370105744498428102e+01,8.239711741384919463e+00
1.372106316090311573e+01,7.342655299594869511e+00
1.374106887682194866e+01,8.180410072442823477e+00
1.376107459274078337e+01,7.240425206769157462e+00
1.378108030865961808e+01,7.278113092112393545e+00
1.380108602457845102e+01,7.388917482157088656e+00
1.382109174049728573e+01,8.120185307935676278e+00
1.384109745641611866e+01,7.466240852633853287e+00
1.386110317233495337e+01,8.495572470442688484e+00
1.388110888825378808e+01,7.181641584964395975e+00
1.390111460417262101e+01,7.866596885714306708e+00
1.392112032009145395e+01,7.552237890177659452e+00
1.394112603601028866e+01,7.624458595108324133e+00
1.396113175192912337e+01,7.343893774604993041e+00
1.398113746784795630e+01,7.027014606331606572e+00
1.400114318376679101e+01,6.131923262669250363e+00
1.402114889968562395e+01,6.694007606153710377e+00
1.404115461560445866e+01,6.684168342252297279e+00
1.406116033152329337e+01,6.121094589436404831e+00
1.408116604744212630e+01,5.846889940240085792e+00
1.410117176336095923e+01,6.513662453015125031e+00
1.412117747927979394e+01,6.087943213907784035e+00
1.414118319519862865e+01,5.097938676069196262e+00
1.416118891111746336e+01,4.779858522632594031e+00
1.418119462703629630e+01,5.044560801751923229e+00
1.420120034295512923e+01,4.857348892196945656e+00
1.422120605887396394e+01,4.674433009079836054e+00
1.424121177479279865e+01,4.056244934842540673e+00
1.426121749071163336e+01,4.698767394933182295e+00
1.428122320663046629e+01,3.690230879902817396e+00
1.430122892254929923e+01,3.634355201070679442e+00
1.432123463846813394e+01,4.174292394511135207e+00
1.434124035438696865e+01,4.363667214248770243e+00
1.436124607030580158e+01,3.640902316158174390e+00
1.438125178622463629e+01,4.129020307125957245e+00
1.440125750214346922e+01,3.898262225504099732e+00
1.442126321806230393e+01,3.975034205869760306e+00
1.444126893398113864e+01,3.999308805848544424e+00
1.446127464989997158e+01,3.863484599113198747e+00
1.448128036581880451e+01,4.282134570487190040e+00
1.450128608173763922e+01,4.235181084313671462e+00
1.452129179765647393e+01,3.802664306440763475e+00
1.454129751357530864e+01,3.566797774612812333e+00
1.456130322949414158e+01,4.217422815251347323e+00
1.458130894541297451e+01,3.054470052915220890e+00
1.460131466133180922e+01,4.427783175535910942e+00
1.462132037725064393e+01,3.902675135260666117e+00
1.464132609316947686e+01,2.889906637655754729e+00
1.466133180908831157e+01,3.513055990862676836e+00
1.468133752500714451e+01,3.487772609137879343e+00
1.470134324092597922e+01,3.879820051827901572e+00
1.472134895684481393e+01,4.385263395582342127e+00
1.474135467276364686e+01,3.983800238997956988e+00
1.476136038868247979e+01,3.609784488488119170e+00
1.478136610460131450e+01,3.904647620526652041e+00
1.480137182052014921e+01,4.169015031748127598e+00
1.482137753643898392e+01,4.668273957680589170e+00
1.484138325235781686e+01,3.177550689448875865e+00
1.486138896827664979e+01,3.175156565661293229e+00
1.488139468419548450e+01,3.676984242004843306e+00
1.490140040011431921e+01,3.623469797967614703e+00
1.492140611603315392e+01,3.517599459581542298e+00
1.494141183195198685e+01,3.831150251517594807e+00
1.496141754787081979e+01,3.012161890091957339e+00
1.498142326378965450e+01,3.653043394738102911e+00
1.500142897970848921e+01,3.092999471317325444e+00
1.502143469562732214e+01,3.455666124594761968e+00
1.504144041154615508e+01,3.221411298986544658e+00
1.506144612746498979e+01,4.163521851512698824e+00
1.508145184338382450e+01,3.587029081584550028e+00
1.510145755930265921e+01,3.561059906432654465e+00
1.512146327522149214e+01,3.738852741112995037e+00
1.514146899114032507e+01,4.030192183100568037e+00
1.516147470705915978e+01,4.012395316736170336e+00
1.518148042297799449e+01,3.441836842476721614e+00
1.520148613889682920e+01,4.016224775256022284e+00
1.522149185481566214e+01,3.615774280668648810e+00
1.524149757073449507e+01,2.927511016741292771e+00
1.526150328665332978e+01,3.775762612170978194e+00
1.528150900257216449e+01,3.759966331924550431e+00
1.530151471849099742e+01,4.527786098110034629e+00
1.532152043440983036e+01,3.083856807785948284e+00
1.534152615032866507e+01,4.308369468266635138e+00
1.536153186624749978e+01,3.279496442688264235e+00
1.538153758216633449e+01,3.506169451563667216e+00
1.540154329808516742e+01,3.824593829504085996e+00
1.542154901400400036e+01,3.974402463284378850e+00
1.544155472992283507e+01,3.665705792839547339e+00
1.546156044584166978e+01,2.893812228450582502e+00
1.548156616176050449e+01,3.357382886254266730e+00
1.550157187767933742e+01,4.067227256046532347e+00
1.552157759359817035e+01,2.946396286020802613e+00
1.554158330951700506e+01,3.918164412363978943e+00
1.556158902543583977e+01,3.670885618919594862e+00
1.558159474135467271e+01,3.050897020095486134e+00
1.560160045727350742e+01,3.674736090823368162e+00
1.562160617319234035e+01,3.172157953345708492e+00
1.564161188911117506e+01,3.333945891433735653e+00
1.566161760503000977e+01,3.566484869248278233e+00
1.568162332094884270e+01,3.149773294511521993e+00
1.570162903686767564e+01,3.760967270331437629e+00
1.572163475278651035e+01,3.030591387043326979e+00
1.574164046870534506e+01,3.252766878110749715e+00
1.576164618462417977e+01,3.803116278471396328e+00
1.578165190054301270e+01,3.762597288184584166e+00
1.580165761646184563e+01,4.189830309121870933e+00
1.582166333238068034e+01,3.848372366268619782e+00
1.584166904829951505e+01,3.663463202440358391e+00
1.586167476421834799e+01,3.468198395939221523e+00
1.588168048013718270e+01,3.541036770795695343e+00
1.590168619605601563e+01,3.037550208718828415e+00
1.592169191197485034e+01,3.744259554120273670e+00
1.594169762789368505e+01,4.092099599261810994e+00
1.596170334381251799e+01,3.657596395189856242e+00
1.598170905973135092e+01,3.899920226175626503e+00
1.600171477565018563e+01,3.971198924346313497e+00
1.602172049156902034e+01,3.777038410360250786e+00
1.604172620748785505e+01,3.957855506077224916e+00
1.606173192340668976e+01,4.062547352872003081e+00
1.608173763932552092e+01,3.521195349063010127e+00
1.610174335524435563e+01,3.862887216503782639e+00
1.612174907116319034e+01,3.752232071555153148e+00
1.614175478708202505e+01,3.987900515977675919e+00
1.616176050300085620e+01,3.658907493721199167e+00
1.618176621891969091e+01,3.290573796741288248e+00
1.620177193483852562e+01,4.334653381438694275e+00
1.622177765075736033e+01,4.233697969914958392e+00
1.624178336667619504e+01,3.931174370583167210e+00
1.626178908259502620e+01,4.218068179447751476e+00
1.628179479851386091e+01,3.457138346800162410e+00
1.630180051443269562e+01,4.789394893169323986e+00
1.632180623035153033e+01,3.585661462053442605e+00
1.634181194627036149e+01,3.832397802745999282e+00
1.636181766218919620e+01,4.086187640983165892e+00
1.638182337810803091e+01,4.774457270351484262e+00
1.640182909402686562e+01,3.501241689444795302e+00
1.642183480994570033e+01,4.619946658947734264e+00
1.644184052586453504e+01,4.096319843403668060e+00
1.646184624178336620e+01,3.828321989593103769e+00
1.648185195770220091e+01,4.922581396615290927e+00
1.650185767362103562e+01,4.334880597104321609e+00
1.652186338953986677e+01,4.602355734330528136e+00
1.654186910545870148e+01,4.921137865442059223e+00
1.656187482137753619e+01,5.337856295135432028e+00
1.658188053729637090e+01,5.303354615969469776e+00
1.660188625321520561e+01,5.303981065410221518e+00
1.662189196913404032e+01,5.457754871866413282e+00
1.664189768505287148e+01,5.203477419900814027e+00
1.666190340097170619e+01,5.154824998482636644e+00
1.668190911689054090e+01,6.045253853525594856e+00
1.670191483280937561e+01,5.628029102223969460e+00
1.672192054872820677e+01,6.236452468390730530e+00
1.674192626464704148e+01,5.850463215628629143e+00
1.676193198056587619e+01,5.845544796753694428e+00
1.678193769648471090e+01,5.766400566610455414e+00
1.680194341240354561e+01,6.834326094634501914e+00
1.682194912832238032e+01,6.347359681886402427e+00
1.684195484424121148e+01,7.066933839197325540e+00
1.686196056016004619e+01,7.429226129510887233e+00
1.688196627607888090e+01,7.169463051817924537e+00
1.690197199199771205e+01,8.095655416458910736e+00
1.692197770791654676e+01,7.461220635750208885e+00
1.694198342383538147e+01,7.014952479363444127e+00
1.696198913975421618e+01,8.471766615270544420e+00
1.698199485567305089e+01,8.503861587381472020e+00
1.700200057159188560e+01,8.738224083028494960e+00
1.702200628751071676e+01,9.288746405547925633e+00
1.704201200342955147e+01,9.740564843868831701e+00
1.706201771934838618e+01,9.725075777387917952e+00
1.708202343526722089e+01,8.910781149800369505e+00
1.710202915118605205e+01,9.845711425762122104e+00
1.712203486710488676e+01,1.011423562872093740e+01
1.714204058302372147e+01,1.156177532669512686e+01
1.716204629894255618e+01,1.153624440881816327e+01
1.718205201486139089e+01,1.141658025755053352e+01
1.720205773078022204e+01,1.147408198534376567e+01
1.722206344669905675e+01,1.234613153196214164e+01
1.724206916261789146e+01,1.250614681099179215e+01
1.726207487853672617e+01,1.269879952666564726e+01
1.728208059445555733e+01,1.397388370870094221e+01
1.730208631037439204e+01,1.327870501229030609e+01
1.732209202629322675e+01,1.496291013193705410e+01
1.734209774221206146e+01,1.454183381929656704e+01
1.736210345813089617e+01,1.601724295073077187e+01
1.738210917404973088e+01,1.558595686362622246e+01
1.740211488996856204e+01,1.654524929601916483e+01
1.742212060588739675e+01,1.708736324743938795e+01
1.744212632180623146e+01,1.785857897121230309e+01
1.746213203772506262e+01,1.863902621079574473e+01
1.748213775364389733e+01,1.860714498073625833e+01
1.750214346956273204e+01,2.025415717656733250e+01
1.752214918548156675e+01,1.992339687205723209e+01
1.754215490140040146e+01,2.094215771617259136e+01
1.756216061731923617e+01,2.186871068763642967e+01
1.758216633323806732e+01,2.309293605430173102e+01
1.760217204915690203e+01,2.348059698461180389e+01
1.762217776507573674e+01,2.322533717077118354e+01
1.764218348099457145e+01,2.416439803045768997e+01
1.766218919691340261e+01,2.574868109548857120e+01
1.768219491283223732e+01,2.684546330869207509e+01
1.770220062875107203e+01,2.777279050298204766e+01
1.772220634466990674e+01,2.811750551109668095e+01
1.774221206058874145e+01,2.915122527627212889e+01
1.776221777650757616e+01,3.055647303674480497e+01
1.778222349242640732e+01,3.079353913957772804e+01
1.780222920834524203e+01,3.187465476679277998e+01
1.782223492426407674e+01,3.286750975645654194e+01
1.784224064018290790e+01,3.436688966865226291e+01
1.786224635610174261e+01,3.461195135445473170e+01
1.788225207202057732e+01,3.604802698410061623e+01
1.790225778793941203e+01,3.710728665929934778e+01
1.792226350385824674e+01,3.798797819994123159e+01
1.794226921977708145e+01,3.999961694759385722e+01
1.796227493569591260e+01,4.007202668871031648e+01
